T 28.02.2014 04:04:58
8285.000 0.000
8286.108 9.211
8287.216 9.442
8288.324 8.735
8289.432 9.531
8290.539 8.986
8291.647 9.034
8292.755 9.258
8293.863 9.258
8294.971 9.422
8296.079 9.456
8297.187 9.986
8298.295 9.544
8299.403 9.666
8300.511 10.075
8301.618 9.782
8302.726 9.511
8303.834 10.252
8304.942 9.238
8306.050 9.531
8307.158 9.625
8308.266 9.408
8309.374 9.687
8310.482 9.245
8311.589 9.286
8312.697 8.871
8313.805 9.517
8314.913 8.660
8316.021 9.354
8317.129 8.953
8318.237 9.136
8319.345 8.421
8320.453 9.068
8321.561 9.163
8322.668 9.334
8323.776 10.313
8324.884 8.721
8325.992 8.891
8327.100 9.238
8328.208 9.367
8329.316 8.748
8330.424 8.884
8331.532 9.096
8332.639 9.339
8333.747 9.843
8334.855 10.850
8335.963 12.816
8337.071 15.714
8338.179 17.483
8339.287 18.612
8340.395 18.428
8341.503 18.088
8342.611 17.762
8343.718 16.442
8344.826 19.762
8345.934 21.061
8347.042 20.551
8348.150 20.850
8349.258 19.000
8350.366 16.667
8351.474 14.878
8352.582 14.442
8353.689 17.354
8354.797 20.089
8355.905 23.340
8357.013 25.368
8358.121 24.517
8359.229 20.762
8360.337 17.375
8361.445 12.660
8362.553 10.925
8363.661 10.660
8364.768 11.054
8365.876 11.782
8366.984 12.292
8368.092 12.449
8369.200 13.171
8370.308 13.748
8371.416 11.905
8372.524 10.734
8373.632 10.198
8374.739 10.089
8375.847 9.673
8376.955 10.204
8378.063 10.150
8379.171 10.034
8380.279 10.204
8381.387 9.660
8382.495 9.775
8383.603 10.436
8384.711 9.231
8385.818 9.088
8386.926 10.898
8388.034 9.544
8389.142 9.708
8390.250 9.871
8391.358 9.884
8392.466 10.483
8393.574 10.421
8394.682 10.381
8395.789 10.401
8396.897 10.523
8398.005 14.021
8399.113 19.001
8400.221 27.721
8401.329 35.626
8402.437 44.211
8403.545 42.626
8404.653 34.204
8405.761 26.027
8406.868 21.021
8407.976 19.129
8409.084 20.095
8410.192 21.503
8411.300 21.768
8412.408 20.115
8413.516 16.734
8414.624 14.231
8415.732 11.884
8416.839 11.000
8417.947 11.734
8419.055 15.599
8420.163 21.768
8421.271 29.266
8422.379 37.742
8423.487 41.333
8424.595 41.680
8425.703 33.184
8426.811 23.353
8427.918 16.245
8429.026 11.673
8430.134 10.462
8431.242 10.803
8432.350 11.034
8433.458 10.517
8434.566 10.660
8435.674 12.354
8436.782 14.048
8437.889 16.402
8438.997 17.830
8440.105 18.034
8441.213 16.728
8442.321 14.898
8443.429 12.211
8444.537 11.279
8445.645 10.483
8446.753 10.381
8447.861 10.081
8448.968 10.823
8450.076 10.802
8451.184 13.347
8452.292 17.204
8453.400 25.470
8454.508 32.035
8455.616 35.877
8456.724 34.096
8457.832 29.252
8458.939 22.136
8460.047 17.034
8461.155 12.585
8462.263 10.973
8463.371 9.844
8464.479 10.701
8465.587 10.605
8466.695 11.477
8467.803 10.497
8468.911 12.204
8470.018 14.966
8471.126 17.109
8472.234 18.850
8473.342 20.089
8474.450 19.504
8475.558 17.769
8476.666 14.251
8477.774 11.306
8478.882 11.136
8479.989 10.354
8481.097 11.143
8482.205 10.986
8483.313 13.204
8484.421 17.680
8485.529 23.367
8486.637 30.244
8487.745 35.429
8488.853 39.088
8489.961 37.436
8491.068 33.517
8492.176 26.898
8493.284 20.850
8494.392 16.231
8495.500 11.279
8496.608 10.741
8497.716 10.497
8498.824 10.592
8499.932 10.531
8501.039 11.197
8502.147 13.279
8503.255 20.245
8504.363 27.579
8505.471 35.449
8506.579 43.327
8507.687 48.074
8508.795 43.565
8509.903 38.075
8511.011 34.177
8512.118 26.905
8513.226 21.898
8514.334 19.769
8515.442 17.198
8516.550 15.810
8517.658 12.925
8518.766 11.599
8519.874 10.354
8520.982 10.109
8522.089 11.210
8523.197 13.040
8524.305 18.422
8525.413 23.442
8526.521 28.183
8527.629 31.687
8528.737 30.177
8529.845 26.510
8530.953 21.966
8532.061 17.312
8533.168 13.973
8534.276 10.741
8535.384 11.252
8536.492 10.966
8537.600 10.129
8538.708 11.497
8539.816 11.422
8540.924 10.313
8542.032 10.633
8543.139 10.367
8544.247 10.816
8545.355 10.401
8546.463 10.592
8547.571 10.762
8548.679 10.020
8549.787 10.891
8550.895 10.088
8552.003 11.190
8553.111 11.198
8554.218 12.034
8555.326 13.735
8556.434 15.251
8557.542 16.374
8558.650 15.469
8559.758 13.531
8560.866 12.986
8561.974 11.707
8563.082 11.123
8564.189 12.381
8565.297 13.871
8566.405 16.367
8567.513 18.517
8568.621 21.864
8569.729 21.911
8570.837 19.721
8571.945 15.884
8573.053 13.258
8574.161 11.789
8575.268 11.061
8576.376 11.204
8577.484 10.184
8578.592 10.599
8579.700 10.170
8580.808 10.327
8581.916 10.286
8583.024 10.095
8584.132 10.959
8585.239 10.925
8586.347 10.803
8587.455 11.143
8588.563 11.259
8589.671 11.211
8590.779 11.136
8591.887 10.252
8592.995 10.612
8594.103 10.415
8595.211 10.272
8596.318 9.904
8597.426 10.272
8598.534 11.265
8599.642 11.415
8600.750 12.156
8601.858 12.537
8602.966 12.776
8604.074 12.510
8605.182 11.197
8606.289 11.415
8607.397 10.551
8608.505 11.123
8609.613 12.673
8610.721 14.762
8611.829 14.666
8612.937 14.728
8614.045 12.626
8615.153 11.938
8616.261 11.360
8617.368 10.517
8618.476 9.775
8619.584 9.830
8620.692 9.844
8621.800 10.259
8622.908 9.415
8624.016 10.306
8625.124 10.150
8626.232 9.931
8627.339 10.034
8628.447 10.538
8629.555 10.075
8630.663 10.068
8631.771 10.075
8632.879 10.055
8633.987 9.633
8635.095 10.578
8636.203 10.252
8637.311 10.618
8638.418 9.905
8639.526 10.150
8640.634 9.939
8641.742 9.850
8642.850 10.109
8643.958 10.217
8645.066 9.823
8646.174 10.796
8647.282 10.190
8648.389 10.925
8649.497 11.504
8650.605 10.966
8651.713 11.530
8652.821 11.762
8653.929 11.327
8655.037 11.925
8656.145 12.435
8657.253 12.408
8658.361 12.231
8659.468 12.041
8660.576 11.674
8661.684 11.429
8662.792 11.082
8663.900 11.136
8665.008 11.619
8666.116 11.557
8667.224 12.292
8668.332 12.483
8669.439 12.143
8670.547 11.973
8671.655 12.857
8672.763 13.381
8673.871 14.170
8674.979 14.184
8676.087 15.333
8677.195 16.258
8678.303 16.517
8679.411 15.367
8680.518 12.796
8681.626 11.803
8682.734 5.170
8683.842 0.000
8684.950 0.000
8686.058 0.000
8687.166 0.000
8688.274 0.000
8689.382 0.000
8690.489 0.000
8691.597 0.000
8692.705 0.000
8693.813 0.000
8694.921 0.000
8696.029 0.000
8697.137 0.000
8698.245 0.000
8699.353 0.000
8700.461 0.000
8701.568 0.000
8702.676 0.000
8703.784 0.000
8704.892 0.000
8706.000 0.000
