8130.725 0.000
8133.445 14.063
8136.147 11.719
8138.832 14.063
8141.500 11.938
8144.151 13.313
8146.785 12.750
8149.402 13.719
8152.003 17.688
8154.586 14.531
8157.154 14.781
8159.704 15.313
8162.238 16.969
8164.756 16.563
8167.258 15.031
8169.743 15.875
8172.213 15.250
8174.666 13.625
8177.104 15.781
8179.525 15.500
8181.932 15.313
8184.322 15.813
8186.697 14.750
8189.056 15.594
8191.400 15.250
8193.729 16.156
8196.042 15.906
8198.341 15.563
8200.624 15.469
8202.893 17.844
8205.146 108.125
8207.385 15.625
8209.610 14.875
8211.819 15.750
8214.014 15.063
8216.195 15.344
8218.362 18.313
8220.514 16.500
8222.652 18.375
8224.776 17.438
8226.886 16.313
8228.982 15.156
8231.065 16.094
8233.133 16.563
8235.188 16.938
8237.230 16.906
8239.258 20.781
8241.273 20.563
8243.274 22.906
8245.262 24.094
8247.238 22.313
8249.200 23.094
8251.149 23.375
8253.085 22.500
8255.009 23.094
8256.920 24.844
8258.819 26.094
8260.705 24.906
8262.578 22.625
8264.440 20.406
8266.289 17.250
8268.126 19.094
8269.951 22.094
8271.764 26.500
8273.565 27.031
8275.354 30.188
8277.132 26.094
8278.898 23.813
8280.652 24.969
8282.396 18.281
8284.127 19.313
8285.848 16.500
8287.557 19.906
8289.255 17.125
8290.943 18.656
8292.619 29.844
8294.285 20.781
8295.940 22.469
8297.584 17.875
8299.217 16.563
8300.841 18.688
8302.453 16.656
8304.056 16.563
8305.648 17.063
8307.230 16.906
8308.803 16.063
8310.365 17.063
8311.917 15.625
8313.460 17.281
8314.993 17.156
8316.516 16.094
8318.030 15.844
8319.534 15.656
8321.030 16.844
8322.515 16.969
8323.992 16.594
8325.460 17.344
8326.918 18.063
8328.368 16.250
8329.809 17.094
8331.242 17.125
8332.665 16.406
8334.080 19.406
8335.487 24.375
8336.885 35.000
8338.275 40.500
8339.657 45.313
8341.031 44.625
8342.397 37.656
8343.755 31.531
8345.105 26.969
8346.447 24.813
8347.781 27.094
8349.108 29.000
8350.428 26.281
8351.740 23.906
8353.045 22.500
8354.342 20.313
8355.633 17.406
8356.916 17.844
8358.192 31.625
8359.462 22.844
8360.725 31.188
8361.981 39.813
8363.230 51.250
8364.473 55.969
8365.710 52.844
8366.940 44.313
8368.164 35.625
8369.381 24.781
8370.593 18.344
8371.799 17.625
8372.998 16.719
8374.192 17.313
8375.380 17.063
8376.563 17.125
8377.740 19.188
8378.911 20.281
8380.077 23.813
8381.238 22.656
8382.394 23.094
8383.544 21.813
8384.689 23.031
8385.830 19.313
8386.965 18.531
8388.096 19.906
8389.222 18.125
8390.344 18.344
8391.461 17.875
8392.574 19.281
8393.682 20.875
8394.786 24.344
8395.886 31.594
8396.981 34.438
8398.073 40.531
8399.161 40.656
8400.245 31.906
8401.326 27.062
8402.402 24.594
8403.476 20.812
8404.545 17.750
8405.612 16.094
8406.675 18.531
8407.735 16.719
8408.791 18.000
8409.845 18.906
8410.896 21.969
8411.944 23.094
8412.989 23.156
8414.032 25.875
8415.072 25.531
8416.109 27.125
8417.144 26.250
8418.177 21.437
8419.207 21.500
8420.236 20.000
8421.262 16.375
8422.286 17.906
8423.309 18.438
8424.329 21.750
8425.348 23.844
8426.366 28.219
8427.381 38.219
8428.396 43.313
8429.409 44.938
8430.420 43.125
8431.431 42.688
8432.440 34.344
8433.449 29.125
8434.456 23.344
8435.463 21.281
8436.469 17.844
8437.474 17.844
8438.479 20.656
8439.483 17.563
8440.487 20.688
8441.490 25.563
8442.494 37.031
8443.497 52.969
8444.500 64.344
8445.503 83.063
8446.506 84.094
8447.510 83.281
8448.514 66.813
8449.518 55.719
8450.522 42.750
8451.528 33.094
8452.534 30.688
8453.540 23.250
8454.548 24.781
8455.556 19.906
8456.566 19.188
8457.576 19.031
8458.588 19.281
8459.601 19.563
8460.615 21.500
8461.631 25.688
8462.648 29.813
8463.667 34.594
8464.687 34.875
8465.710 37.875
8466.734 32.594
8467.760 27.500
8468.789 23.656
8469.819 20.219
8470.852 20.219
8471.887 17.656
8472.924 20.031
8473.964 18.500
8475.007 19.563
8476.052 20.500
8477.100 17.938
8478.150 19.250
8479.204 20.313
8480.261 19.563
8481.320 19.500
8482.383 17.719
8483.450 18.250
8484.519 18.094
8485.593 17.625
8486.669 17.469
8487.749 17.531
8488.834 19.813
8489.921 20.938
8491.013 22.219
8492.109 22.844
8493.208 22.469
8494.312 23.594
8495.421 20.375
8496.533 19.063
8497.650 17.406
8498.771 18.219
8499.897 19.719
8501.028 18.813
8502.164 22.094
8503.304 28.094
8504.449 32.750
8505.600 29.156
8506.755 26.875
8507.916 24.719
8509.082 19.031
8510.253 20.906
8511.430 18.125
8512.612 16.531
8513.800 16.688
8514.994 17.969
8516.193 16.594
8517.399 18.438
8518.610 17.469
8519.828 19.094
8521.052 18.813
8522.282 21.313
8523.518 18.250
8524.761 17.750
8526.010 19.375
8527.266 17.688
8528.528 18.719
8529.798 15.938
8531.074 18.531
8532.357 19.531
8533.648 19.031
8534.945 19.281
8536.250 20.375
8537.561 17.719
8538.881 21.375
8540.208 18.250
8541.542 19.594
8542.884 18.531
8544.234 18.813
8545.591 17.406
8546.957 17.438
8548.331 17.063
8549.712 17.531
8551.102 19.469
8552.500 24.531
8553.907 22.062
8555.322 23.656
8556.745 20.438
8558.177 17.531
8559.618 19.063
8561.067 21.031
8562.526 17.219
8563.993 17.313
8565.470 17.938
8566.956 17.344
8568.450 18.781
8569.955 17.781
8571.468 19.563
8572.991 18.063
8574.524 18.875
8576.067 17.500
8577.619 18.406
8579.181 18.219
8580.753 16.938
8582.335 18.719
8583.927 17.375
8585.529 18.094
8587.142 19.031
8588.765 19.594
8590.398 18.156
8592.042 17.906
8593.696 19.000
8595.362 16.531
8597.038 19.688
8598.725 18.688
8600.423 18.688
8602.132 18.688
8603.852 19.250
8605.584 21.000
8607.327 19.625
8609.081 20.344
8610.847 23.094
8612.624 18.719
8614.413 17.375
8616.214 19.563
8618.027 20.438
8619.851 22.313
8621.688 21.469
8623.537 19.250
8625.398 21.063
8627.271 20.125
8629.157 18.531
8631.055 18.750
8632.966 19.281
8634.889 18.031
8636.825 18.406
8638.774 19.375
8640.736 20.500
8642.711 19.250
8644.699 17.906
8646.700 20.406
8648.715 21.094
8650.742 23.594
8652.784 23.594
8654.838 23.750
8656.907 24.406
8658.989 21.031
8661.085 22.031
8663.194 19.219
8665.318 4.531
8667.456 0.000
8669.608 0.000
8671.774 0.000
8673.954 0.000
8676.149 0.000
8678.358 0.000
8680.582 0.000
8682.821 0.000
8685.074 0.000
8687.342 0.000
8689.625 0.000
8691.923 0.000
8694.237 0.000
8696.565 0.000
8698.909 0.000
8701.268 0.000
8703.642 0.000
8706.032 0.000
8708.438 0.000
8710.859 0.000
8713.296 0.000
