T 28.02.2018 03:59:40
8285.000 0.000
8286.108 18.319
8287.216 18.236
8288.324 17.688
8289.432 17.805
8290.539 17.917
8291.647 18.430
8292.755 18.875
8293.863 20.208
8294.971 19.313
8296.079 19.923
8297.187 20.542
8298.295 19.909
8299.403 21.215
8300.511 20.021
8301.618 20.444
8302.726 20.556
8303.834 20.111
8304.942 20.834
8306.050 20.514
8307.158 20.673
8308.266 19.986
8309.374 20.146
8310.482 20.799
8311.589 19.805
8312.697 20.819
8313.805 20.216
8314.913 20.069
8316.021 19.305
8317.129 19.875
8318.237 19.986
8319.345 20.285
8320.453 21.528
8321.561 19.618
8322.668 20.000
8323.776 20.736
8324.884 20.660
8325.992 21.146
8327.100 20.562
8328.208 20.764
8329.316 21.673
8330.424 20.570
8331.532 19.736
8332.639 20.049
8333.747 20.722
8334.855 22.146
8335.963 23.653
8337.071 25.812
8338.179 27.027
8339.287 28.264
8340.395 29.055
8341.503 27.750
8342.611 26.855
8343.718 26.750
8344.826 28.389
8345.934 28.354
8347.042 29.882
8348.150 29.785
8349.258 27.326
8350.366 25.042
8351.474 24.660
8352.582 24.292
8353.689 25.194
8354.797 28.743
8355.905 30.618
8357.013 31.340
8358.121 31.660
8359.229 28.465
8360.337 25.750
8361.445 23.146
8362.553 21.403
8363.661 22.173
8364.768 21.882
8365.876 22.667
8366.984 23.146
8368.092 24.410
8369.200 24.312
8370.308 22.910
8371.416 22.507
8372.524 21.792
8373.632 21.000
8374.739 20.431
8375.847 20.667
8376.955 20.174
8378.063 21.084
8379.171 19.986
8380.279 20.292
8381.387 21.410
8382.495 20.341
8383.603 20.750
8384.711 20.569
8385.818 20.701
8386.926 20.479
8388.034 20.160
8389.142 20.223
8390.250 19.688
8391.358 20.465
8392.466 20.951
8393.574 20.243
8394.682 20.375
8395.789 21.077
8396.897 21.819
8398.005 24.479
8399.113 28.000
8400.221 35.076
8401.329 39.486
8402.437 43.111
8403.545 41.743
8404.653 35.028
8405.761 29.979
8406.868 27.209
8407.976 26.743
8409.084 28.424
8410.192 29.299
8411.300 29.062
8412.408 27.438
8413.516 25.875
8414.624 24.034
8415.732 22.216
8416.839 20.611
8417.947 22.354
8419.055 25.319
8420.163 28.722
8421.271 31.708
8422.379 36.806
8423.487 37.458
8424.595 35.854
8425.703 32.181
8426.811 27.569
8427.918 23.833
8429.026 22.229
8430.134 20.681
8431.242 21.007
8432.350 21.875
8433.458 23.299
8434.566 22.063
8435.674 22.882
8436.782 25.396
8437.889 26.549
8438.997 27.243
8440.105 26.139
8441.213 27.230
8442.321 24.889
8443.429 22.986
8444.537 21.521
8445.645 21.653
8446.753 21.458
8447.861 21.570
8448.968 21.646
8450.076 22.271
8451.184 24.278
8452.292 28.153
8453.400 31.757
8454.508 36.389
8455.616 38.625
8456.724 36.402
8457.832 32.799
8458.939 28.327
8460.047 25.174
8461.155 22.271
8462.263 22.452
8463.371 20.812
8464.479 21.229
8465.587 21.917
8466.695 21.750
8467.803 22.243
8468.911 23.507
8470.018 24.917
8471.126 28.479
8472.234 28.681
8473.342 29.618
8474.450 29.542
8475.558 26.743
8476.666 25.951
8477.774 24.000
8478.882 22.604
8479.989 22.264
8481.097 22.653
8482.205 22.625
8483.313 25.729
8484.421 27.944
8485.529 31.264
8486.637 36.222
8487.745 39.125
8488.853 41.993
8489.961 42.146
8491.068 38.417
8492.176 33.674
8493.284 28.389
8494.392 24.396
8495.500 22.340
8496.608 21.577
8497.716 21.938
8498.824 22.209
8499.932 22.646
8501.039 23.271
8502.147 21.973
8503.255 22.875
8504.363 26.986
8505.471 26.320
8506.579 28.681
8507.687 29.604
8508.795 29.188
8509.903 29.806
8511.011 28.868
8512.118 30.354
8513.226 30.236
8514.334 29.042
8515.442 28.362
8516.550 25.827
8517.658 24.548
8518.766 22.653
8519.874 22.230
8520.982 22.514
8522.089 23.000
8523.197 23.694
8524.305 26.827
8525.413 31.354
8526.521 36.403
8527.629 37.854
8528.737 36.952
8529.845 33.924
8530.953 30.819
8532.061 26.479
8533.168 23.681
8534.276 21.701
8535.384 22.514
8536.492 22.410
8537.600 23.972
8538.708 23.570
8539.816 22.688
8540.924 22.389
8542.032 22.438
8543.139 22.959
8544.247 21.368
8545.355 22.375
8546.463 23.361
8547.571 23.472
8548.679 22.764
8549.787 23.320
8550.895 21.986
8552.003 21.826
8553.111 22.458
8554.218 22.952
8555.326 23.875
8556.434 26.055
8557.542 26.861
8558.650 25.687
8559.758 24.500
8560.866 22.736
8561.974 22.611
8563.082 20.792
8564.189 22.479
8565.297 23.493
8566.405 27.236
8567.513 29.563
8568.621 32.527
8569.729 30.444
8570.837 29.791
8571.945 26.083
8573.053 24.653
8574.161 22.708
8575.268 21.854
8576.376 21.791
8577.484 22.632
8578.592 21.153
8579.700 21.931
8580.808 22.139
8581.916 23.097
8583.024 22.528
8584.132 21.930
8585.239 24.021
8586.347 22.514
8587.455 21.653
8588.563 23.021
8589.671 23.132
8590.779 22.097
8591.887 22.660
8592.995 22.632
8594.103 22.743
8595.211 21.195
8596.318 22.688
8597.426 22.327
8598.534 21.889
8599.642 22.799
8600.750 23.174
8601.858 23.396
8602.966 23.014
8604.074 20.910
8605.182 21.486
8606.289 21.938
8607.397 20.354
8608.505 21.584
8609.613 24.077
8610.721 25.896
8611.829 26.139
8612.937 25.757
8614.045 25.146
8615.153 22.980
8616.261 22.195
8617.368 22.438
8618.476 22.757
8619.584 22.264
8620.692 21.965
8621.800 21.847
8622.908 23.236
8624.016 22.250
8625.124 23.570
8626.232 23.153
8627.339 21.938
8628.447 21.563
8629.555 22.160
8630.663 23.459
8631.771 22.319
8632.879 23.611
8633.987 22.653
8635.095 22.250
8636.203 23.299
8637.311 23.389
8638.418 22.326
8639.526 23.618
8640.634 22.285
8641.742 23.194
8642.850 23.028
8643.958 22.958
8645.066 22.556
8646.174 21.306
8647.282 22.382
8648.389 24.500
8649.497 24.875
8650.605 23.542
8651.713 23.563
8652.821 24.556
8653.929 22.132
8655.037 22.820
8656.145 23.653
8657.253 25.139
8658.361 24.618
8659.468 24.528
8660.576 23.792
8661.684 23.146
8662.792 22.264
8663.900 22.820
8665.008 23.021
8666.116 23.812
8667.224 23.007
8668.332 24.459
8669.439 23.139
8670.547 23.174
8671.655 23.868
8672.763 24.361
8673.871 26.104
8674.979 27.153
8676.087 28.090
8677.195 27.632
8678.303 28.313
8679.411 26.979
8680.518 24.486
8681.626 23.340
8682.734 11.715
8683.842 0.500
8684.950 0.000
8686.058 0.000
8687.166 0.000
8688.274 0.000
8689.382 0.000
8690.489 0.000
8691.597 0.000
8692.705 0.000
8693.813 0.000
8694.921 0.000
8696.029 0.000
8697.137 0.000
8698.245 0.000
8699.353 0.000
8700.461 0.000
8701.568 0.000
8702.676 0.000
8703.784 0.000
8704.892 0.000
8706.000 0.000
