8126.375 0.000
8129.200 879.308
8132.006 880.667
8134.794 877.000
8137.563 872.359
8140.314 876.385
8143.046 871.385
8145.760 888.282
8148.457 873.513
8151.135 887.641
8153.795 889.308
8156.437 887.564
8159.062 876.205
8161.669 893.846
8164.259 885.487
8166.831 888.487
8169.386 878.692
8171.924 888.538
8174.444 893.974
8176.947 880.513
8179.434 890.385
8181.904 897.667
8184.356 877.436
8186.793 890.667
8189.212 893.590
8191.615 896.821
8194.002 884.795
8196.373 883.615
8198.727 888.744
8201.065 893.051
8203.388 882.179
8205.694 888.179
8207.985 897.769
8210.260 896.744
8212.519 893.897
8214.763 886.103
8216.991 898.846
8219.204 895.821
8221.402 879.282
8223.585 880.744
8225.752 898.821
8227.905 898.385
8230.043 885.333
8232.166 886.282
8234.275 899.795
8236.369 898.410
8238.448 905.667
8240.513 910.538
8242.564 914.795
8244.601 920.513
8246.624 905.974
8248.632 910.872
8250.627 916.333
8252.608 916.154
8254.576 927.538
8256.529 926.897
8258.470 934.436
8260.396 921.128
8262.310 906.308
8264.210 912.769
8266.097 919.718
8267.972 924.692
8269.833 912.974
8271.681 926.333
8273.517 939.103
8275.340 923.923
8277.151 928.615
8278.949 921.872
8280.735 919.949
8282.508 935.256
8284.269 910.077
8286.019 913.000
8287.756 923.231
8289.482 913.462
8291.195 920.256
8292.897 921.821
8294.588 929.385
8296.267 933.821
8297.934 912.949
8299.591 915.744
8301.236 912.641
8302.870 905.487
8304.493 909.615
8306.105 913.103
8307.706 925.821
8309.296 917.923
8310.876 928.231
8312.446 922.308
8314.005 923.462
8315.553 928.333
8317.092 927.282
8318.620 909.872
8320.138 923.949
8321.646 928.590
8323.145 932.692
8324.633 923.744
8326.112 929.846
8327.582 921.385
8329.042 929.590
8330.492 930.333
8331.934 922.385
8333.366 931.077
8334.789 931.205
8336.203 952.103
8337.608 953.308
8339.004 968.769
8340.392 983.410
8341.771 981.308
8343.141 964.179
8344.503 942.538
8345.857 948.923
8347.202 956.154
8348.540 947.718
8349.869 954.513
8351.191 945.154
8352.504 959.256
8353.810 948.385
8355.108 943.103
8356.399 941.949
8357.682 945.923
8358.958 933.872
8360.226 950.410
8361.488 959.718
8362.742 952.744
8363.989 959.769
8365.230 957.538
8366.463 964.179
8367.690 942.385
8368.911 950.205
8370.124 946.821
8371.332 946.974
8372.533 938.231
8373.728 957.821
8374.917 938.487
8376.100 949.410
8377.276 961.308
8378.447 952.051
8379.613 957.179
8380.772 957.308
8381.926 963.846
8383.075 962.718
8384.218 961.436
8385.356 961.154
8386.489 964.436
8387.617 966.282
8388.740 951.026
8389.858 955.744
8390.971 962.103
8392.080 964.513
8393.184 958.359
8394.283 960.128
8395.378 973.641
8396.469 982.385
8397.556 989.231
8398.638 994.821
8399.717 984.615
8400.791 977.590
8401.862 963.923
8402.929 968.974
8403.992 956.821
8405.052 956.462
8406.108 968.692
8407.161 967.590
8408.211 975.436
8409.258 970.974
8410.302 959.513
8411.342 972.487
8412.380 976.410
8413.415 972.385
8414.448 975.846
8415.477 970.590
8416.505 974.333
8417.530 972.923
8418.552 968.256
8419.573 981.744
8420.591 964.359
8421.608 977.974
8422.622 971.436
8423.635 965.462
8424.646 979.667
8425.655 978.923
8426.663 994.256
8427.669 1011.077
8428.675 1009.769
8429.678 1019.026
8430.681 1005.590
8431.683 999.821
8432.684 992.564
8433.683 983.846
8434.683 971.282
8435.681 982.436
8436.679 974.641
8437.677 979.487
8438.674 966.718
8439.670 981.564
8440.667 980.538
8441.664 973.641
8442.660 966.410
8443.657 996.154
8444.654 987.231
8445.651 983.538
8446.649 986.744
8447.647 997.103
8448.646 994.077
8449.645 982.718
8450.645 992.872
8451.646 992.231
8452.648 1008.077
8453.651 1007.974
8454.656 992.513
8455.661 985.256
8456.668 982.590
8457.676 986.846
8458.686 976.974
8459.698 982.590
8460.711 989.000
8461.726 998.769
8462.743 1007.077
8463.762 1012.308
8464.783 1015.103
8465.807 1011.692
8466.832 995.128
8467.860 996.154
8468.891 995.436
8469.924 999.410
8470.960 988.487
8471.999 973.974
8473.041 985.154
8474.085 1003.487
8475.133 990.538
8476.184 986.154
8477.238 991.128
8478.295 990.718
8479.356 966.462
8480.421 994.026
8481.489 997.718
8482.561 1002.282
8483.637 996.590
8484.717 988.333
8485.800 986.128
8486.888 989.538
8487.980 1002.077
8489.077 980.462
8490.178 997.231
8491.283 986.026
8492.393 1009.949
8493.508 1003.026
8494.627 1018.154
8495.752 1006.128
8496.881 1003.154
8498.016 999.103
8499.156 1003.872
8500.301 1005.385
8501.451 1003.256
8502.607 1009.436
8503.768 1006.846
8504.935 1012.795
8506.108 1012.436
8507.287 1008.718
8508.472 996.744
8509.662 993.590
8510.859 991.744
8512.063 994.205
8513.272 1001.897
8514.488 1013.282
8515.710 987.949
8516.939 989.410
8518.175 1008.615
8519.418 1012.513
8520.667 998.077
8521.924 1007.872
8523.188 1014.256
8524.458 998.923
8525.737 1010.692
8527.022 1016.128
8528.315 1012.564
8529.616 1000.128
8530.924 1008.795
8532.240 1014.026
8533.564 996.769
8534.896 1006.333
8536.236 1007.769
8537.584 996.692
8538.941 1003.846
8540.305 1003.513
8541.679 1007.590
8543.060 1019.410
8544.451 1005.974
8545.850 1013.359
8547.258 996.231
8548.675 997.103
8550.101 1016.692
8551.536 1007.923
8552.980 1010.769
8554.433 1016.128
8555.896 1018.000
8557.369 1011.077
8558.851 1014.615
8560.343 1009.974
8561.844 1004.846
8563.356 998.538
8564.877 1005.487
8566.409 1004.872
8567.950 1015.231
8569.502 1004.256
8571.064 1001.487
8572.637 1009.564
8574.221 1016.436
8575.814 1004.564
8577.419 1001.103
8579.035 1003.949
8580.661 1005.462
8582.299 1009.795
8583.947 1017.923
8585.607 998.718
8587.279 1007.821
8588.961 1009.744
8590.655 1004.821
8592.361 997.744
8594.079 1013.615
8595.808 1015.538
8597.549 1012.872
8599.302 1007.821
8601.067 1001.385
8602.845 1000.897
8604.635 990.077
8606.437 1014.231
8608.251 996.846
8610.078 1001.231
8611.918 1010.564
8613.771 1011.436
8615.636 1002.308
8617.514 993.051
8619.406 1014.359
8621.310 1003.308
8623.228 1010.154
8625.159 997.769
8627.104 997.564
8629.062 1003.154
8631.034 993.487
8633.019 998.256
8635.018 1002.641
8637.032 999.949
8639.059 999.385
8641.100 1001.385
8643.155 1008.897
8645.225 1002.077
8647.309 1010.179
8649.408 1000.436
8651.521 1006.103
8653.649 1007.154
8655.792 1000.282
8657.949 995.821
8660.122 998.000
8662.309 993.949
8664.512 1004.538
8666.730 999.974
8668.963 997.000
8671.212 997.692
8673.476 432.231
8675.756 0.000
8678.052 0.000
8680.363 0.000
8682.691 0.000
8685.034 0.000
8687.394 0.000
8689.770 0.000
8692.162 0.000
8694.570 0.000
8696.995 0.000
8699.437 0.000
8701.895 0.000
8704.370 0.000
8706.862 0.000
8709.371 0.000
8711.897 0.000
8714.440 0.000
8717.000 0.000
8719.578 0.000
8722.173 0.000
8724.786 0.000
