T 03.02.2017 02:59:39
8285.000 0.000
8286.108 11.410
8287.216 10.979
8288.324 9.827
8289.432 10.861
8290.539 10.291
8291.647 10.215
8292.755 10.458
8293.863 11.861
8294.971 11.889
8296.079 11.208
8297.187 12.209
8298.295 11.271
8299.403 12.694
8300.511 13.055
8301.618 12.500
8302.726 11.792
8303.834 11.340
8304.942 11.604
8306.050 12.486
8307.158 12.313
8308.266 11.986
8309.374 11.875
8310.482 11.874
8311.589 10.910
8312.697 10.812
8313.805 10.756
8314.913 11.333
8316.021 12.048
8317.129 11.034
8318.237 10.959
8319.345 10.862
8320.453 10.868
8321.561 11.250
8322.668 10.847
8323.776 11.167
8324.884 10.840
8325.992 15.514
8327.100 11.528
8328.208 11.597
8329.316 10.722
8330.424 11.138
8331.532 10.709
8332.639 11.729
8333.747 12.701
8334.855 15.486
8335.963 18.181
8337.071 19.291
8338.179 20.771
8339.287 22.903
8340.395 24.327
8341.503 23.292
8342.611 22.333
8343.718 21.792
8344.826 23.965
8345.934 26.625
8347.042 27.306
8348.150 26.924
8349.258 24.201
8350.366 20.111
8351.474 19.139
8352.582 17.785
8353.689 21.417
8354.797 25.396
8355.905 36.355
8357.013 32.375
8358.121 30.090
8359.229 24.306
8360.337 21.160
8361.445 15.521
8362.553 12.153
8363.661 13.396
8364.768 14.222
8365.876 15.104
8366.984 16.395
8368.092 18.493
8369.200 17.042
8370.308 15.910
8371.416 14.896
8372.524 13.278
8373.632 12.556
8374.739 12.215
8375.847 12.375
8376.955 12.160
8378.063 12.430
8379.171 11.993
8380.279 12.486
8381.387 11.709
8382.495 11.646
8383.603 12.549
8384.711 12.125
8385.818 11.743
8386.926 11.584
8388.034 12.048
8389.142 12.014
8390.250 12.215
8391.358 13.320
8392.466 12.653
8393.574 12.202
8394.682 12.632
8395.789 12.972
8396.897 14.014
8398.005 18.396
8399.113 25.417
8400.221 34.826
8401.329 46.091
8402.437 53.042
8403.545 48.132
8404.653 38.847
8405.761 31.403
8406.868 25.458
8407.976 24.229
8409.084 25.590
8410.192 25.896
8411.300 26.632
8412.408 24.048
8413.516 20.084
8414.624 17.278
8415.732 14.000
8416.839 13.479
8417.947 15.583
8419.055 20.653
8420.163 28.000
8421.271 34.424
8422.379 45.479
8423.487 45.889
8424.595 43.347
8425.703 34.404
8426.811 24.097
8427.918 16.785
8429.026 13.466
8430.134 12.688
8431.242 12.632
8432.350 12.673
8433.458 12.222
8434.566 13.819
8435.674 16.778
8436.782 18.798
8437.889 20.472
8438.997 22.278
8440.105 23.173
8441.213 20.062
8442.321 17.722
8443.429 15.424
8444.537 13.340
8445.645 13.194
8446.753 16.820
8447.861 13.861
8448.968 12.201
8450.076 14.403
8451.184 16.285
8452.292 21.437
8453.400 30.160
8454.508 39.389
8455.616 44.104
8456.724 40.673
8457.832 34.417
8458.939 28.771
8460.047 20.826
8461.155 15.229
8462.263 13.160
8463.371 13.619
8464.479 12.486
8465.587 12.500
8466.695 12.680
8467.803 13.583
8468.911 15.598
8470.018 18.549
8471.126 22.965
8472.234 24.187
8473.342 25.292
8474.450 24.965
8475.558 21.722
8476.666 18.222
8477.774 15.882
8478.882 14.799
8479.989 13.611
8481.097 13.743
8482.205 13.417
8483.313 16.785
8484.421 24.625
8485.529 30.271
8486.637 38.139
8487.745 45.674
8488.853 49.451
8489.961 50.952
8491.068 41.715
8492.176 33.542
8493.284 28.687
8494.392 19.472
8495.500 14.736
8496.608 13.660
8497.716 12.688
8498.824 12.736
8499.932 12.590
8501.039 12.382
8502.147 15.903
8503.255 18.590
8504.363 23.097
8505.471 33.972
8506.579 33.375
8507.687 36.264
8508.795 34.618
8509.903 32.639
8511.011 31.569
8512.118 29.104
8513.226 27.098
8514.334 24.528
8515.442 22.139
8516.550 19.785
8517.658 16.910
8518.766 14.993
8519.874 13.868
8520.982 12.827
8522.089 13.681
8523.197 16.792
8524.305 21.521
8525.413 31.132
8526.521 35.916
8527.629 40.076
8528.737 41.215
8529.845 34.284
8530.953 27.972
8532.061 24.021
8533.168 17.966
8534.276 13.403
8535.384 13.285
8536.492 12.993
8537.600 13.424
8538.708 13.514
8539.816 12.729
8540.924 13.660
8542.032 13.069
8543.139 17.035
8544.247 14.465
8545.355 13.972
8546.463 13.090
8547.571 12.132
8548.679 12.021
8549.787 14.507
8550.895 13.458
8552.003 14.931
8553.111 13.139
8554.218 15.951
8555.326 17.868
8556.434 20.229
8557.542 21.917
8558.650 19.812
8559.758 18.153
8560.866 18.035
8561.974 15.396
8563.082 14.133
8564.189 15.535
8565.297 16.791
8566.405 21.896
8567.513 25.444
8568.621 28.146
8569.729 28.229
8570.837 26.368
8571.945 20.535
8573.053 17.778
8574.161 14.604
8575.268 13.077
8576.376 14.042
8577.484 13.701
8578.592 13.049
8579.700 12.743
8580.808 13.431
8581.916 13.305
8583.024 15.326
8584.132 13.514
8585.239 14.604
8586.347 14.938
8587.455 15.215
8588.563 14.479
8589.671 14.555
8590.779 13.688
8591.887 14.562
8592.995 13.881
8594.103 14.916
8595.211 14.736
8596.318 15.187
8597.426 13.506
8598.534 14.875
8599.642 16.056
8600.750 16.715
8601.858 16.840
8602.966 17.208
8604.074 17.742
8605.182 15.000
8606.289 14.320
8607.397 13.382
8608.505 14.743
8609.613 17.605
8610.721 24.000
8611.829 19.930
8612.937 18.709
8614.045 17.139
8615.153 15.778
8616.261 14.140
8617.368 13.347
8618.476 12.979
8619.584 12.361
8620.692 13.194
8621.800 13.382
8622.908 12.541
8624.016 12.076
8625.124 12.243
8626.232 12.819
8627.339 12.576
8628.447 13.653
8629.555 12.576
8630.663 13.444
8631.771 13.826
8632.879 13.361
8633.987 13.111
8635.095 12.535
8636.203 14.236
8637.311 14.208
8638.418 13.708
8639.526 13.444
8640.634 13.076
8641.742 15.361
8642.850 12.646
8643.958 13.583
8645.066 13.507
8646.174 13.756
8647.282 14.007
8648.389 15.611
8649.497 16.160
8650.605 16.215
8651.713 15.923
8652.821 15.855
8653.929 14.792
8655.037 15.570
8656.145 14.896
8657.253 16.389
8658.361 17.097
8659.468 16.597
8660.576 16.396
8661.684 14.702
8662.792 13.167
8663.900 13.341
8665.008 13.222
8666.116 14.611
8667.224 15.139
8668.332 14.583
8669.439 15.007
8670.547 14.979
8671.655 16.687
8672.763 16.271
8673.871 18.181
8674.979 19.098
8676.087 19.597
8677.195 21.430
8678.303 20.403
8679.411 19.826
8680.518 16.229
8681.626 14.528
8682.734 8.702
8683.842 1.021
8684.950 0.000
8686.058 0.000
8687.166 0.000
8688.274 0.000
8689.382 0.000
8690.489 0.000
8691.597 0.000
8692.705 0.000
8693.813 0.000
8694.921 0.000
8696.029 0.000
8697.137 0.000
8698.245 0.000
8699.353 0.000
8700.461 0.000
8701.568 0.000
8702.676 0.000
8703.784 0.000
8704.892 0.000
8706.000 0.000
