8201.792 0.000
8203.166 11.658
8204.538 9.447
8205.910 9.763
8207.280 10.158
8208.649 8.342
8210.017 10.737
8211.384 10.316
8212.749 11.026
8214.114 9.684
8215.477 9.579
8216.840 11.132
8218.201 11.053
8219.561 10.132
8220.919 9.816
8222.277 10.789
8223.633 10.184
8224.989 9.816
8226.343 10.789
8227.696 9.158
8229.047 11.579
8230.398 10.737
8231.747 9.789
8233.095 10.526
8234.442 10.526
8235.787 9.605
8237.132 10.684
8238.475 10.237
8239.817 10.605
8241.157 9.368
8242.497 10.500
8243.835 10.000
8245.172 10.789
8246.507 11.184
8247.842 15.447
8249.175 11.158
8250.507 10.868
8251.837 9.789
8253.167 10.526
8254.494 12.395
8255.821 9.158
8257.146 9.579
8258.471 10.184
8259.793 9.579
8261.115 9.500
8262.435 12.105
8263.754 16.763
8265.071 17.395
8266.387 17.553
8267.702 20.868
8269.015 21.816
8270.327 20.632
8271.638 19.789
8272.947 19.974
8274.255 20.974
8275.562 22.579
8276.867 25.079
8278.171 23.526
8279.473 21.684
8280.774 20.474
8282.074 14.526
8283.372 14.895
8284.669 18.237
8285.965 20.158
8287.259 24.816
8288.551 27.026
8289.843 25.421
8291.132 23.211
8292.421 18.421
8293.707 13.342
8294.993 11.763
8296.277 9.605
8297.559 13.289
8298.840 13.053
8300.120 13.368
8301.398 17.342
8302.675 15.053
8303.950 13.132
8305.224 14.026
8306.496 13.395
8307.767 12.263
8309.036 10.605
8310.303 10.842
8311.570 11.342
8312.834 9.526
8314.097 11.316
8315.359 10.184
8316.619 11.579
8317.878 10.289
8319.135 11.737
8320.390 10.605
8321.644 11.579
8322.897 9.868
8324.147 10.421
8325.397 9.763
8326.644 10.684
8327.890 10.079
8329.135 12.684
8330.378 11.447
8331.619 12.132
8332.859 9.632
8334.097 12.658
8335.333 14.342
8336.568 20.132
8337.802 29.921
8339.033 37.711
8340.263 44.342
8341.492 41.947
8342.719 34.526
8343.944 26.579
8345.167 21.947
8346.389 18.737
8347.610 18.105
8348.828 23.711
8350.045 23.553
8351.260 20.842
8352.474 18.895
8353.686 16.079
8354.896 13.395
8356.104 11.211
8357.311 12.316
8358.516 14.132
8359.720 17.289
8360.921 24.184
8362.121 26.947
8363.319 29.526
8364.516 25.000
8365.711 23.816
8366.904 17.763
8368.095 11.921
8369.285 12.053
8370.473 9.816
8371.659 11.711
8372.843 11.026
8374.026 12.184
8375.206 12.289
8376.385 13.579
8377.563 17.184
8378.738 18.132
8379.912 22.158
8381.084 20.553
8382.254 16.974
8383.422 16.211
8384.588 13.816
8385.753 12.684
8386.916 12.500
8388.077 10.132
8389.236 12.421
8390.394 11.789
8391.549 11.368
8392.703 13.211
8393.855 25.500
8395.004 26.684
8396.153 33.105
8397.299 35.921
8398.443 36.947
8399.586 30.132
8400.726 22.211
8401.865 18.263
8403.002 14.158
8404.137 10.895
8405.270 13.289
8406.401 11.500
8407.530 10.079
8408.658 11.263
8409.783 14.342
8410.907 14.421
8412.028 14.789
8413.148 19.184
8414.266 20.868
8415.381 22.658
8416.495 21.974
8417.607 20.105
8418.717 16.395
8419.825 13.658
8420.931 11.895
8422.035 12.289
8423.137 12.105
8424.237 14.342
8425.335 16.921
8426.431 19.526
8427.525 26.474
8428.617 32.316
8429.707 40.105
8430.795 42.868
8431.881 42.947
8432.965 36.395
8434.047 33.974
8435.127 23.526
8436.205 18.132
8437.281 13.763
8438.355 10.526
8439.427 12.474
8440.496 12.500
8441.564 11.342
8442.630 11.947
8443.693 12.474
8444.755 13.000
8445.814 14.132
8446.871 16.316
8447.926 17.237
8448.980 18.632
8450.031 19.737
8451.079 17.711
8452.126 18.289
8453.171 19.342
8454.213 20.763
8455.254 22.474
8456.292 19.289
8457.328 19.000
8458.362 14.421
8459.394 13.632
8460.424 12.026
8461.451 11.737
8462.477 13.974
8463.500 14.658
8464.521 20.474
8465.540 26.789
8466.556 32.632
8467.571 36.921
8468.583 36.763
8469.593 30.605
8470.601 27.500
8471.607 20.053
8472.611 14.605
8473.612 11.711
8474.611 11.816
8475.608 10.158
8476.602 12.237
8477.595 13.211
8478.585 10.974
8479.573 14.079
8480.558 11.868
8481.542 12.421
8482.523 11.447
8483.502 12.632
8484.478 11.868
8485.453 12.079
8486.425 11.526
8487.395 11.368
8488.362 10.658
8489.327 11.605
8490.290 12.105
8491.251 13.368
8492.209 17.263
8493.165 19.763
8494.118 20.184
8495.070 18.447
8496.019 16.316
8496.965 14.474
8497.910 13.895
8498.852 12.316
8499.791 12.658
8500.728 16.711
8501.663 17.316
8502.596 21.658
8503.526 27.316
8504.454 26.342
8505.379 21.763
8506.302 16.711
8507.223 14.026
8508.141 13.605
8509.057 13.421
8509.970 12.789
8510.881 12.368
8511.790 12.079
8512.696 12.553
8513.600 11.737
8514.501 12.553
8515.400 13.816
8516.297 13.842
8517.191 12.921
8518.082 13.553
8518.971 12.921
8519.858 13.421
8520.742 13.474
8521.624 13.237
8522.503 13.316
8523.380 13.026
8524.254 12.763
8525.126 13.816
8525.995 12.868
8526.862 11.263
8527.727 13.053
8528.588 15.500
8529.448 16.053
8530.304 15.711
8531.159 14.184
8532.010 15.974
8532.860 13.895
8533.706 14.184
8534.550 11.579
8535.392 13.342
8536.231 16.895
8537.067 17.605
8537.901 18.789
8538.733 16.184
8539.561 15.789
8540.387 14.211
8541.211 11.105
8542.032 14.553
8542.850 13.026
8543.666 12.237
8544.479 12.289
8545.290 14.184
8546.098 11.500
8546.903 10.526
8547.706 13.079
8548.506 11.868
8549.304 10.658
8550.099 11.105
8550.891 11.158
8551.680 11.421
8552.467 11.632
8553.251 11.289
8554.033 11.211
8554.812 11.316
8555.588 13.395
8556.362 10.737
8557.133 11.658
8557.901 12.737
8558.666 11.105
8559.429 12.079
8560.189 12.237
8560.947 11.579
8561.701 11.421
8562.453 11.658
8563.203 12.526
8563.949 12.289
8564.693 12.763
8565.434 12.921
8566.172 12.632
8566.908 12.105
8567.641 12.658
8568.371 12.921
8569.098 13.395
8569.823 14.921
8570.544 14.921
8571.263 13.789
8571.980 12.526
8572.693 12.947
8573.404 13.579
8574.112 11.974
8574.817 13.079
8575.519 11.605
8576.218 12.211
8576.915 12.053
8577.609 11.026
8578.300 13.605
8578.988 14.421
8579.673 14.368
8580.355 14.868
8581.035 14.868
8581.712 19.895
8582.386 18.553
8583.057 20.447
8583.725 16.842
8584.390 15.737
8585.053 12.763
8585.712 5.000
8586.369 0.316
8587.023 0.000
8587.674 0.000
8588.322 0.000
8588.967 0.000
8589.609 0.000
8590.248 0.000
8590.884 0.000
8591.518 0.000
8592.148 0.000
8592.776 0.000
8593.400 0.000
8594.022 0.000
8594.641 0.000
8595.256 0.000
8595.869 0.000
8596.479 0.000
8597.086 0.000
8597.690 0.000
8598.291 0.000
8598.889 0.000
