8201.792 0.000
8203.166 1046.658
8204.538 1059.421
8205.910 1053.632
8207.280 1060.711
8208.649 1056.000
8210.017 1057.789
8211.384 1062.763
8212.749 1072.974
8214.114 1066.000
8215.477 1066.789
8216.840 1073.289
8218.201 1075.026
8219.561 1071.632
8220.919 1077.763
8222.277 1077.553
8223.633 1080.974
8224.989 1077.605
8226.343 1070.263
8227.696 1075.737
8229.047 1057.289
8230.398 1074.000
8231.747 1070.842
8233.095 1081.789
8234.442 1082.263
8235.787 1084.053
8237.132 1081.921
8238.475 1069.684
8239.817 1070.158
8241.157 1080.500
8242.497 1078.921
8243.835 1069.526
8245.172 1081.605
8246.507 1090.500
8247.842 1090.605
8249.175 1086.184
8250.507 1081.184
8251.837 1080.368
8253.167 1087.632
8254.494 1069.921
8255.821 1069.368
8257.146 1085.395
8258.471 1086.053
8259.793 1100.605
8261.115 1073.579
8262.435 1080.421
8263.754 1088.158
8265.071 1099.395
8266.387 1103.289
8267.702 1087.868
8269.015 1093.737
8270.327 1098.395
8271.638 1103.132
8272.947 1098.263
8274.255 1093.184
8275.562 1105.737
8276.867 1112.132
8278.171 1111.974
8279.473 1098.158
8280.774 1102.026
8282.074 1087.421
8283.372 1110.632
8284.669 1098.632
8285.965 1110.500
8287.259 1119.316
8288.551 1129.816
8289.843 1112.289
8291.132 1107.316
8292.421 1103.658
8293.707 1096.474
8294.993 1105.500
8296.277 1106.763
8297.559 1098.421
8298.840 1107.342
8300.120 1102.684
8301.398 1111.579
8302.675 1104.711
8303.950 1122.605
8305.224 1111.132
8306.496 1116.895
8307.767 1111.789
8309.036 1121.500
8310.303 1126.395
8311.570 1097.211
8312.834 1096.842
8314.097 1110.342
8315.359 1118.053
8316.619 1123.000
8317.878 1118.947
8319.135 1115.211
8320.390 1120.816
8321.644 1112.000
8322.897 1132.237
8324.147 1113.553
8325.397 1115.132
8326.644 1111.053
8327.890 1124.237
8329.135 1127.711
8330.378 1118.763
8331.619 1124.658
8332.859 1116.947
8334.097 1128.316
8335.333 1121.368
8336.568 1138.632
8337.802 1133.658
8339.033 1144.474
8340.263 1158.816
8341.492 1157.263
8342.719 1155.895
8343.944 1157.895
8345.167 1136.711
8346.389 1141.526
8347.610 1148.184
8348.828 1147.842
8350.045 1150.763
8351.260 1160.421
8352.474 1148.421
8353.686 1132.711
8354.896 1143.500
8356.104 1146.158
8357.311 1139.658
8358.516 1150.289
8359.720 1154.500
8360.921 1143.605
8362.121 1157.105
8363.319 1144.000
8364.516 1149.632
8365.711 1148.947
8366.904 1161.526
8368.095 1143.447
8369.285 1138.763
8370.473 1144.026
8371.659 1141.342
8372.843 1154.342
8374.026 1167.789
8375.206 1146.421
8376.385 1151.737
8377.563 1156.553
8378.738 1158.921
8379.912 1138.421
8381.084 1143.658
8382.254 1147.737
8383.422 1160.211
8384.588 1154.658
8385.753 1157.947
8386.916 1152.658
8388.077 1152.237
8389.236 1164.211
8390.394 1169.368
8391.549 1165.395
8392.703 1167.526
8393.855 1161.553
8395.004 1175.079
8396.153 1163.921
8397.299 1196.289
8398.443 1192.421
8399.586 1182.132
8400.726 1180.316
8401.865 1168.605
8403.002 1165.842
8404.137 1160.789
8405.270 1162.421
8406.401 1171.658
8407.530 1155.553
8408.658 1163.500
8409.783 1150.474
8410.907 1165.947
8412.028 1173.579
8413.148 1172.711
8414.266 1176.605
8415.381 1162.632
8416.495 1197.632
8417.607 1190.368
8418.717 1182.868
8419.825 1176.474
8420.931 1168.237
8422.035 1177.553
8423.137 1169.605
8424.237 1180.000
8425.335 1175.684
8426.431 1193.868
8427.525 1202.421
8428.617 1203.316
8429.707 1208.842
8430.795 1212.553
8431.881 1207.211
8432.965 1213.368
8434.047 1199.158
8435.127 1183.421
8436.205 1181.763
8437.281 1186.395
8438.355 1182.368
8439.427 1168.737
8440.496 1188.921
8441.564 1194.579
8442.630 1187.184
8443.693 1187.342
8444.755 1205.632
8445.814 1175.526
8446.871 1189.737
8447.926 1195.763
8448.980 1205.789
8450.031 1212.842
8451.079 1195.342
8452.126 1196.184
8453.171 1200.553
8454.213 1206.868
8455.254 1208.026
8456.292 1183.395
8457.328 1196.000
8458.362 1188.395
8459.394 1184.053
8460.424 1206.211
8461.451 1211.289
8462.477 1205.763
8463.500 1198.711
8464.521 1206.737
8465.540 1209.053
8466.556 1229.316
8467.571 1215.474
8468.583 1217.921
8469.593 1212.447
8470.601 1223.895
8471.607 1213.000
8472.611 1199.605
8473.612 1195.895
8474.611 1210.895
8475.608 1206.395
8476.602 1205.816
8477.595 1194.789
8478.585 1184.105
8479.573 1208.316
8480.558 1199.711
8481.542 1209.079
8482.523 1191.737
8483.502 1214.079
8484.478 1185.974
8485.453 1205.737
8486.425 1193.947
8487.395 1195.342
8488.362 1209.658
8489.327 1190.974
8490.290 1199.974
8491.251 1196.395
8492.209 1209.526
8493.165 1213.553
8494.118 1232.158
8495.070 1200.158
8496.019 1210.421
8496.965 1193.684
8497.910 1214.553
8498.852 1212.895
8499.791 1196.895
8500.728 1203.263
8501.663 1230.105
8502.596 1228.000
8503.526 1220.500
8504.454 1230.947
8505.379 1212.711
8506.302 1202.526
8507.223 1214.237
8508.141 1209.316
8509.057 1216.711
8509.970 1205.579
8510.881 1208.132
8511.790 1223.737
8512.696 1203.868
8513.600 1204.158
8514.501 1203.658
8515.400 1203.868
8516.297 1215.184
8517.191 1216.632
8518.082 1199.237
8518.971 1222.579
8519.858 1205.421
8520.742 1206.368
8521.624 1222.737
8522.503 1208.658
8523.380 1218.895
8524.254 1213.605
8525.126 1224.211
8525.995 1209.447
8526.862 1209.737
8527.727 1213.000
8528.588 1210.079
8529.448 1220.737
8530.304 1229.053
8531.159 1208.263
8532.010 1220.658
8532.860 1235.000
8533.706 1229.684
8534.550 1218.605
8535.392 1225.737
8536.231 1212.316
8537.067 1206.579
8537.901 1216.974
8538.733 1221.421
8539.561 1221.395
8540.387 1221.737
8541.211 1199.789
8542.032 1207.237
8542.850 1208.684
8543.666 1219.526
8544.479 1213.974
8545.290 1207.921
8546.098 1196.105
8546.903 1216.921
8547.706 1217.211
8548.506 1207.000
8549.304 1228.816
8550.099 1222.605
8550.891 1215.921
8551.680 1206.237
8552.467 1204.500
8553.251 1226.737
8554.033 1210.474
8554.812 1207.632
8555.588 1223.737
8556.362 1216.368
8557.133 1188.789
8557.901 1218.579
8558.666 1217.289
8559.429 1207.842
8560.189 1207.842
8560.947 1209.816
8561.701 1204.474
8562.453 1221.474
8563.203 1201.763
8563.949 1220.026
8564.693 1214.895
8565.434 1213.184
8566.172 1204.605
8566.908 1208.947
8567.641 1204.842
8568.371 1198.789
8569.098 1220.158
8569.823 1201.605
8570.544 1216.579
8571.263 1202.421
8571.980 1205.184
8572.693 1217.079
8573.404 1219.079
8574.112 1204.368
8574.817 1207.053
8575.519 1191.632
8576.218 1193.789
8576.915 1203.947
8577.609 1194.342
8578.300 1210.868
8578.988 1206.132
8579.673 1221.079
8580.355 1210.132
8581.035 1211.605
8581.712 1211.342
8582.386 1211.605
8583.057 1205.079
8583.725 1202.211
8584.390 1208.842
8585.053 1211.132
8585.712 662.500
8586.369 0.000
8587.023 0.000
8587.674 0.000
8588.322 0.000
8588.967 0.000
8589.609 0.000
8590.248 0.000
8590.884 0.000
8591.518 0.000
8592.148 0.000
8592.776 0.000
8593.400 0.000
8594.022 0.000
8594.641 0.000
8595.256 0.000
8595.869 0.000
8596.479 0.000
8597.086 0.000
8597.690 0.000
8598.291 0.000
8598.889 0.000
