T 07.02.2019 04:59:52
8285.000 0.000
8286.108 15.570
8287.216 15.952
8288.324 15.618
8289.432 15.153
8290.539 15.479
8291.647 15.299
8292.755 15.980
8293.863 16.049
8294.971 15.757
8296.079 15.799
8297.187 16.416
8298.295 16.340
8299.403 17.056
8300.511 17.125
8301.618 16.673
8302.726 17.347
8303.834 17.784
8304.942 15.806
8306.050 16.555
8307.158 16.618
8308.266 16.715
8309.374 15.410
8310.482 15.111
8311.589 15.514
8312.697 15.208
8313.805 14.986
8314.913 15.007
8316.021 15.785
8317.129 15.153
8318.237 14.222
8319.345 15.368
8320.453 14.382
8321.561 15.889
8322.668 15.632
8323.776 15.667
8324.884 14.951
8325.992 15.757
8327.100 15.132
8328.208 15.076
8329.316 15.389
8330.424 14.986
8331.532 15.598
8332.639 15.500
8333.747 17.410
8334.855 19.695
8335.963 24.965
8337.071 29.097
8338.179 33.999
8339.287 35.048
8340.395 35.173
8341.503 34.660
8342.611 32.507
8343.718 32.507
8344.826 33.924
8345.934 36.605
8347.042 39.341
8348.150 36.938
8349.258 32.146
8350.366 27.576
8351.474 22.667
8352.582 24.764
8353.689 29.028
8354.797 35.076
8355.905 41.396
8357.013 44.049
8358.121 40.632
8359.229 33.813
8360.337 27.118
8361.445 20.785
8362.553 17.257
8363.661 16.799
8364.768 18.112
8365.876 19.125
8366.984 22.285
8368.092 23.486
8369.200 24.674
8370.308 21.451
8371.416 20.382
8372.524 17.466
8373.632 16.125
8374.739 14.750
8375.847 15.410
8376.955 15.750
8378.063 15.292
8379.171 15.104
8380.279 15.076
8381.387 15.611
8382.495 16.410
8383.603 16.153
8384.711 14.715
8385.818 15.584
8386.926 15.917
8388.034 15.827
8389.142 16.007
8390.250 15.931
8391.358 15.667
8392.466 16.500
8393.574 16.882
8394.682 15.590
8395.789 17.056
8396.897 17.493
8398.005 21.555
8399.113 29.938
8400.221 42.222
8401.329 59.236
8402.437 68.903
8403.545 63.174
8404.653 51.639
8405.761 39.979
8406.868 34.028
8407.976 29.958
8409.084 32.194
8410.192 35.667
8411.300 35.667
8412.408 32.381
8413.516 27.500
8414.624 22.410
8415.732 19.340
8416.839 18.000
8417.947 19.312
8419.055 23.986
8420.163 31.208
8421.271 39.910
8422.379 48.702
8423.487 55.472
8424.595 53.340
8425.703 42.938
8426.811 31.709
8427.918 23.361
8429.026 18.750
8430.134 16.924
8431.242 17.882
8432.350 17.951
8433.458 16.417
8434.566 18.278
8435.674 20.944
8436.782 24.910
8437.889 28.084
8438.997 31.507
8440.105 29.972
8441.213 28.270
8442.321 24.194
8443.429 19.847
8444.537 18.437
8445.645 17.535
8446.753 17.076
8447.861 18.292
8448.968 18.146
8450.076 17.840
8451.184 20.597
8452.292 28.820
8453.400 40.667
8454.508 50.236
8455.616 56.542
8456.724 53.903
8457.832 45.354
8458.939 36.104
8460.047 27.375
8461.155 20.132
8462.263 17.841
8463.371 18.160
8464.479 17.562
8465.587 16.847
8466.695 18.472
8467.803 18.986
8468.911 21.834
8470.018 26.111
8471.126 29.548
8472.234 33.445
8473.342 35.743
8474.450 34.888
8475.558 29.611
8476.666 25.320
8477.774 21.027
8478.882 18.535
8479.989 18.243
8481.097 17.945
8482.205 18.208
8483.313 21.931
8484.421 30.618
8485.529 40.674
8486.637 50.528
8487.745 59.972
8488.853 64.778
8489.961 63.049
8491.068 56.959
8492.176 45.646
8493.284 33.681
8494.392 26.181
8495.500 19.848
8496.608 17.972
8497.716 16.841
8498.824 17.049
8499.932 17.334
8501.039 18.153
8502.147 20.111
8503.255 25.868
8504.363 32.257
8505.471 40.375
8506.579 44.687
8507.687 50.743
8508.795 45.951
8509.903 45.424
8511.011 41.424
8512.118 37.805
8513.226 37.125
8514.334 34.320
8515.442 31.472
8516.550 27.681
8517.658 23.938
8518.766 20.694
8519.874 19.577
8520.982 18.375
8522.089 18.910
8523.197 23.035
8524.305 32.653
8525.413 43.799
8526.521 49.611
8527.629 56.410
8528.737 55.187
8529.845 46.924
8530.953 38.104
8532.061 31.604
8533.168 23.195
8534.276 20.091
8535.384 18.146
8536.492 18.799
8537.600 19.764
8538.708 19.465
8539.816 19.590
8540.924 19.660
8542.032 19.319
8543.139 19.535
8544.247 19.959
8545.355 19.528
8546.463 18.743
8547.571 18.333
8548.679 19.375
8549.787 18.451
8550.895 18.424
8552.003 19.771
8553.111 20.389
8554.218 23.521
8555.326 28.070
8556.434 29.916
8557.542 31.743
8558.650 31.090
8559.758 26.528
8560.866 23.945
8561.974 21.465
8563.082 19.459
8564.189 21.417
8565.297 26.021
8566.405 30.736
8567.513 37.473
8568.621 43.042
8569.729 43.167
8570.837 37.792
8571.945 30.145
8573.053 24.944
8574.161 21.729
8575.268 19.889
8576.376 19.958
8577.484 20.125
8578.592 18.902
8579.700 19.299
8580.808 19.271
8581.916 19.639
8583.024 20.778
8584.132 20.882
8585.239 22.431
8586.347 21.084
8587.455 22.361
8588.563 22.979
8589.671 21.750
8590.779 21.798
8591.887 21.889
8592.995 22.639
8594.103 21.840
8595.211 23.257
8596.318 21.882
8597.426 22.153
8598.534 24.548
8599.642 25.653
8600.750 26.639
8601.858 27.903
8602.966 28.493
8604.074 26.278
8605.182 23.500
8606.289 23.687
8607.397 21.674
8608.505 23.889
8609.613 26.410
8610.721 29.854
8611.829 31.049
8612.937 30.827
8614.045 25.813
8615.153 21.910
8616.261 19.688
8617.368 19.632
8618.476 18.944
8619.584 19.014
8620.692 19.062
8621.800 18.625
8622.908 18.091
8624.016 17.882
8625.124 18.340
8626.232 18.744
8627.339 18.480
8628.447 18.652
8629.555 18.486
8630.663 18.298
8631.771 17.819
8632.879 18.181
8633.987 18.951
8635.095 18.313
8636.203 18.208
8637.311 18.285
8638.418 17.993
8639.526 18.112
8640.634 17.694
8641.742 17.722
8642.850 16.993
8643.958 17.694
8645.066 18.305
8646.174 18.605
8647.282 20.007
8648.389 21.014
8649.497 20.465
8650.605 20.451
8651.713 21.396
8652.821 19.063
8653.929 19.653
8655.037 20.702
8656.145 23.354
8657.253 23.187
8658.361 23.368
8659.468 22.882
8660.576 21.264
8661.684 20.535
8662.792 19.639
8663.900 18.535
8665.008 19.375
8666.116 18.889
8667.224 19.708
8668.332 19.847
8669.439 19.645
8670.547 20.931
8671.655 19.625
8672.763 20.792
8673.871 22.826
8674.979 22.639
8676.087 22.507
8677.195 24.368
8678.303 24.000
8679.411 23.959
8680.518 21.479
8681.626 19.882
8682.734 8.375
8683.842 0.000
8684.950 0.000
8686.058 0.000
8687.166 0.000
8688.274 0.000
8689.382 0.000
8690.489 0.000
8691.597 0.000
8692.705 0.000
8693.813 0.000
8694.921 0.000
8696.029 0.000
8697.137 0.000
8698.245 0.000
8699.353 0.000
8700.461 0.000
8701.568 0.000
8702.676 0.000
8703.784 0.000
8704.892 0.000
8706.000 0.000
