8097.170 0.000
8100.408 912.083
8103.624 907.792
8106.817 913.375
8109.988 912.667
8113.137 880.333
8116.263 903.750
8119.368 904.833
8122.451 898.750
8125.512 916.542
8128.552 884.833
8131.570 910.458
8134.567 891.000
8137.543 899.208
8140.497 910.000
8143.431 915.583
8146.343 934.292
8149.235 924.167
8152.106 922.750
8154.956 903.833
8157.786 905.542
8160.596 928.375
8163.386 899.500
8166.155 926.667
8168.904 930.125
8171.634 919.167
8174.343 915.750
8177.033 906.042
8179.704 912.458
8182.355 910.750
8184.987 910.750
8187.599 922.875
8190.192 910.125
8192.767 894.958
8195.322 924.292
8197.859 926.083
8200.377 913.375
8202.877 905.000
8205.358 903.167
8207.821 875.542
8210.265 923.917
8212.692 917.958
8215.101 918.042
8217.491 876.583
8219.864 912.458
8222.220 926.083
8224.558 873.917
8226.878 891.875
8229.181 927.958
8231.467 906.542
8233.736 923.000
8235.988 939.833
8238.223 892.333
8240.442 937.875
8242.644 934.625
8244.829 935.208
8246.998 952.875
8249.151 893.833
8251.287 947.458
8253.408 939.208
8255.512 936.833
8257.601 940.458
8259.674 955.167
8261.731 910.958
8263.773 948.458
8265.800 871.292
8267.811 897.000
8269.807 946.500
8271.788 961.667
8273.754 910.500
8275.706 934.625
8277.643 902.333
8279.565 905.333
8281.472 944.583
8283.366 930.625
8285.245 916.292
8287.110 939.708
8288.961 911.750
8290.798 940.083
8292.621 942.000
8294.431 923.542
8296.227 904.625
8298.009 951.833
8299.779 901.667
8301.535 954.000
8303.278 941.500
8305.008 947.458
8306.725 942.083
8308.429 956.792
8310.121 936.542
8311.800 913.750
8313.467 953.250
8315.121 940.333
8316.763 949.250
8318.393 952.208
8320.011 947.958
8321.618 957.833
8323.212 953.333
8324.795 949.750
8326.367 936.167
8327.926 948.750
8329.475 941.250
8331.013 968.625
8332.539 976.083
8334.054 965.875
8335.559 980.167
8337.053 989.458
8338.536 973.875
8340.009 994.875
8341.471 959.792
8342.923 981.458
8344.365 962.958
8345.797 923.583
8347.219 921.667
8348.631 982.417
8350.033 975.875
8351.426 980.292
8352.810 971.167
8354.183 972.958
8355.548 965.292
8356.904 980.000
8358.250 967.833
8359.588 964.583
8360.916 923.708
8362.236 983.000
8363.548 924.292
8364.851 981.042
8366.146 927.875
8367.432 977.208
8368.710 972.333
8369.981 919.083
8371.243 975.792
8372.497 982.167
8373.744 966.667
8374.984 977.667
8376.215 966.792
8377.440 930.667
8378.657 927.417
8379.868 975.250
8381.071 985.083
8382.267 984.208
8383.457 973.042
8384.639 991.625
8385.816 908.667
8386.986 959.542
8388.149 930.292
8389.307 984.917
8390.458 980.375
8391.603 966.125
8392.743 990.167
8393.876 938.875
8395.004 910.375
8396.127 992.750
8397.244 943.875
8398.356 977.458
8399.462 994.458
8400.564 931.083
8401.660 1002.833
8402.752 997.333
8403.839 992.750
8404.921 985.292
8405.999 957.792
8407.072 971.292
8408.142 981.167
8409.207 979.917
8410.268 996.500
8411.324 993.125
8412.378 984.375
8413.427 988.750
8414.473 990.625
8415.515 978.083
8416.554 1002.958
8417.590 1000.417
8418.622 1005.958
8419.652 991.208
8420.678 998.333
8421.702 966.042
8422.723 981.958
8423.741 990.333
8424.757 999.333
8425.771 994.000
8426.782 1002.583
8427.792 1019.333
8428.799 1025.333
8429.804 1021.542
8430.807 1014.625
8431.809 1016.250
8432.809 1035.042
8433.808 1027.250
8434.806 1015.625
8435.802 980.958
8436.797 1010.208
8437.791 1005.583
8438.784 994.792
8439.777 1010.375
8440.768 962.708
8441.759 1014.167
8442.750 1005.917
8443.741 996.250
8444.731 1004.708
8445.721 1000.667
8446.711 978.667
8447.701 1010.667
8448.692 999.292
8449.683 1000.250
8450.674 1010.292
8451.666 1026.542
8452.658 1014.792
8453.652 962.833
8454.646 1009.000
8455.641 1000.667
8456.638 1009.375
8457.635 1004.333
8458.634 1006.375
8459.635 1003.250
8460.637 1030.583
8461.641 946.792
8462.647 1012.583
8463.654 1011.042
8464.664 977.792
8465.676 1015.000
8466.690 1042.000
8467.706 946.792
8468.725 976.458
8469.747 1022.125
8470.771 1000.042
8471.798 1010.333
8472.828 967.708
8473.862 995.083
8474.898 964.833
8475.938 1020.417
8476.981 1009.792
8478.027 1014.708
8479.077 980.625
8480.131 1016.625
8481.189 960.875
8482.251 1004.458
8483.317 1006.667
8484.387 1004.750
8485.461 1017.667
8486.540 918.625
8487.623 1010.125
8488.711 1011.375
8489.804 1035.375
8490.902 1021.417
8492.004 1082.333
8493.112 1012.458
8494.225 1006.792
8495.343 1036.708
8496.467 1026.583
8497.596 1023.667
8498.731 1030.708
8499.871 1022.042
8501.018 1043.083
8502.170 1003.208
8503.329 983.333
8504.494 1018.708
8505.665 990.375
8506.843 1026.333
8508.027 985.917
8509.218 956.542
8510.416 1033.417
8511.621 1028.542
8512.832 984.167
8514.051 987.792
8515.277 952.625
8516.511 1014.750
8517.752 1005.083
8519.000 1017.292
8520.257 1018.958
8521.521 1023.583
8522.793 1014.167
8524.073 1017.292
8525.361 1017.667
8526.657 1014.208
8527.962 1022.167
8529.275 1012.708
8530.597 992.875
8531.928 1026.667
8533.267 1025.708
8534.616 1021.500
8535.973 1026.750
8537.340 987.667
8538.716 960.708
8540.101 1036.500
8541.496 993.833
8542.900 1015.958
8544.314 1025.500
8545.738 983.667
8547.172 1030.625
8548.616 1030.250
8550.071 1024.125
8551.535 1036.417
8553.010 984.458
8554.496 1005.500
8555.992 1030.667
8557.499 1024.083
8559.017 982.708
8560.545 1036.792
8562.085 1049.958
8563.636 968.167
8565.199 1029.833
8566.772 941.875
8568.358 1035.333
8569.955 1030.083
8571.564 980.875
8573.184 995.625
8574.817 1042.667
8576.462 1001.250
8578.119 1022.167
8579.788 1017.917
8581.470 1027.333
8583.164 996.458
8584.871 1013.208
8586.591 1017.042
8588.324 1023.958
8590.070 1015.958
8591.829 1026.917
8593.601 986.708
8595.386 1017.542
8597.185 1026.875
8598.998 1032.042
8600.824 1016.083
8602.664 1024.083
8604.518 1046.833
8606.386 1019.542
8608.268 980.542
8610.164 980.750
8612.075 1024.583
8614.001 1016.375
8615.940 1025.625
8617.895 1016.542
8619.864 1011.625
8621.849 1022.292
8623.848 1017.583
8625.863 1026.167
8627.892 1039.000
8629.938 976.083
8631.998 1026.792
8634.075 1021.083
8636.167 1027.000
8638.275 1023.875
8640.399 1028.208
8642.539 1018.083
8644.695 1033.333
8646.867 1028.750
8649.056 1029.917
8651.261 1023.125
8653.483 1044.667
8655.722 975.042
8657.978 1016.875
8660.250 1021.250
8662.540 1012.500
8664.847 1015.750
8667.171 1015.542
8669.513 1027.208
8671.872 1019.458
8674.249 1034.417
8676.643 979.833
8679.056 971.667
8681.486 762.500
8683.935 763.083
8686.401 669.542
8688.886 581.333
8691.390 544.833
8693.912 328.667
8696.453 318.667
8699.012 0.000
8701.591 0.000
8704.188 0.000
8706.805 0.000
8709.441 0.000
8712.096 0.000
8714.770 0.000
8717.465 0.000
8720.179 0.000
8722.912 0.000
8725.666 0.000
8728.439 0.000
8731.233 0.000
8734.047 0.000
