8097.170 0.000
8100.408 7.923
8103.624 5.962
8106.817 6.308
8109.988 6.500
8113.137 5.077
8116.263 5.308
8119.368 5.885
8122.451 7.038
8125.512 6.538
8128.552 6.885
8131.570 6.538
8134.567 5.923
8137.543 6.346
8140.497 8.346
8143.431 6.308
8146.343 6.154
8149.235 5.192
8152.106 6.423
8154.956 6.654
8157.786 5.038
8160.596 5.846
8163.386 6.808
8166.155 5.462
8168.904 5.077
8171.634 5.038
8174.343 5.923
8177.033 6.154
8179.704 6.538
8182.355 5.731
8184.987 7.423
8187.599 6.808
8190.192 5.538
8192.767 6.038
8195.322 5.038
8197.859 5.962
8200.377 5.923
8202.877 5.808
8205.358 6.500
8207.821 5.231
8210.265 5.346
8212.692 5.038
8215.101 6.154
8217.491 6.462
8219.864 5.154
8222.220 7.615
8224.558 8.346
8226.878 11.000
8229.181 13.654
8231.467 16.423
8233.736 20.538
8235.988 16.423
8238.223 17.038
8240.442 16.538
8242.644 19.038
8244.829 17.500
8246.998 20.423
8249.151 17.577
8251.287 20.462
8253.408 18.731
8255.512 13.654
8257.601 11.192
8259.674 10.808
8261.731 15.115
8263.773 16.462
8265.800 21.269
8267.811 23.192
8269.807 22.500
8271.788 19.692
8273.754 16.577
8275.706 10.692
8277.643 7.038
8279.565 8.000
8281.472 8.692
8283.366 8.538
8285.245 10.077
8287.110 10.923
8288.961 12.077
8290.798 10.846
8292.621 10.500
8294.431 7.654
8296.227 7.115
8298.009 7.269
8299.779 7.423
8301.535 5.654
8303.278 5.385
8305.008 6.538
8306.725 6.808
8308.429 5.846
8310.121 6.885
8311.800 6.923
8313.467 6.269
8315.121 7.077
8316.763 5.885
8318.393 6.077
8320.011 7.077
8321.618 7.308
8323.212 6.308
8324.795 7.077
8326.367 7.962
8327.926 7.154
8329.475 5.500
8331.013 6.385
8332.539 9.385
8334.054 13.731
8335.559 19.808
8337.053 29.692
8338.536 37.385
8340.009 45.038
8341.471 37.462
8342.923 33.692
8344.365 22.885
8345.797 19.692
8347.219 18.423
8348.631 17.500
8350.033 17.577
8351.426 18.154
8352.810 15.385
8354.183 13.577
8355.548 9.538
8356.904 9.538
8358.250 7.462
8359.588 9.000
8360.916 11.423
8362.236 12.231
8363.548 11.538
8364.851 14.346
8366.146 15.846
8367.432 13.038
8368.710 12.692
8369.981 8.346
8371.243 7.500
8372.497 5.462
8373.744 7.346
8374.984 6.385
8376.215 7.154
8377.440 7.769
8378.657 7.808
8379.868 7.808
8381.071 10.808
8382.267 15.154
8383.457 16.462
8384.639 16.577
8385.816 15.500
8386.986 13.115
8388.149 8.885
8389.307 6.154
8390.458 7.538
8391.603 5.885
8392.743 6.692
8393.876 8.538
8395.004 7.346
8396.127 9.846
8397.244 12.385
8398.356 22.385
8399.462 28.577
8400.564 31.077
8401.660 32.423
8402.752 29.885
8403.839 23.038
8404.921 16.962
8405.999 11.538
8407.072 8.962
8408.142 8.000
8409.207 6.731
8410.268 5.346
8411.324 6.692
8412.378 10.462
8413.427 8.385
8414.473 11.808
8415.515 15.308
8416.554 17.077
8417.590 16.462
8418.622 18.000
8419.652 15.731
8420.678 14.692
8421.702 12.308
8422.723 8.000
8423.741 7.538
8424.757 7.769
8425.771 6.769
8426.782 10.038
8427.792 10.500
8428.799 18.308
8429.804 23.500
8430.807 33.500
8431.809 37.615
8432.809 40.923
8433.808 36.654
8434.806 34.154
8435.802 26.192
8436.797 15.923
8437.791 12.577
8438.784 9.192
8439.777 7.269
8440.768 7.808
8441.759 5.808
8442.750 6.346
8443.741 5.346
8444.731 7.692
8445.721 7.654
8446.711 7.462
8447.701 10.077
8448.692 10.538
8449.683 10.423
8450.674 11.538
8451.666 14.885
8452.658 12.077
8453.652 17.115
8454.646 15.308
8455.641 16.308
8456.638 15.154
8457.635 12.269
8458.634 10.615
8459.635 9.538
8460.637 7.731
8461.641 7.654
8462.647 8.538
8463.654 10.654
8464.664 16.192
8465.676 19.115
8466.690 24.692
8467.706 30.077
8468.725 28.577
8469.747 28.308
8470.771 22.692
8471.798 16.577
8472.828 12.500
8473.862 9.962
8474.898 8.115
8475.938 6.885
8476.981 8.385
8478.027 6.192
8479.077 8.500
8480.131 6.462
8481.189 8.731
8482.251 5.731
8483.317 7.000
8484.387 8.346
8485.461 7.731
8486.540 6.423
8487.623 7.423
8488.711 6.077
8489.804 6.615
8490.902 7.038
8492.004 7.423
8493.112 8.346
8494.225 8.308
8495.343 10.962
8496.467 13.538
8497.596 13.885
8498.731 12.462
8499.871 12.038
8501.018 8.462
8502.170 9.000
8503.329 7.962
8504.494 9.654
8505.665 9.615
8506.843 15.846
8508.027 17.231
8509.218 19.154
8510.416 18.923
8511.621 15.654
8512.832 12.538
8514.051 8.615
8515.277 8.808
8516.511 8.231
8517.752 6.692
8519.000 6.308
8520.257 5.846
8521.521 6.308
8522.793 6.846
8524.073 7.423
8525.361 7.923
8526.657 7.423
8527.962 6.269
8529.275 6.385
8530.597 9.538
8531.928 6.615
8533.267 7.654
8534.616 7.115
8535.973 6.385
8537.340 7.385
8538.716 7.731
8540.101 6.385
8541.496 8.692
8542.900 7.615
8544.314 7.038
8545.738 8.077
8547.172 8.077
8548.616 11.615
8550.071 9.308
8551.535 8.423
8553.010 9.846
8554.496 8.269
8555.992 6.269
8557.499 7.500
8559.017 9.269
8560.545 11.115
8562.085 14.154
8563.636 13.231
8565.199 11.346
8566.772 9.692
8568.358 8.154
8569.955 8.000
8571.564 7.269
8573.184 8.154
8574.817 6.808
8576.462 6.615
8578.119 6.885
8579.788 7.462
8581.470 7.885
8583.164 6.885
8584.871 6.346
8586.591 6.769
8588.324 6.692
8590.070 7.038
8591.829 5.731
8593.601 6.154
8595.386 6.346
8597.185 6.269
8598.998 7.962
8600.824 6.500
8602.664 6.769
8604.518 5.269
8606.386 6.154
8608.268 6.500
8610.164 8.385
8612.075 6.885
8614.001 6.962
8615.940 5.846
8617.895 8.115
8619.864 8.423
8621.849 7.885
8623.848 7.654
8625.863 8.615
8627.892 9.154
8629.938 9.269
8631.998 7.462
8634.075 9.154
8636.167 7.962
8638.275 9.769
8640.399 10.769
8642.539 9.654
8644.695 7.385
8646.867 7.808
8649.056 7.385
8651.261 7.346
8653.483 5.846
8655.722 6.769
8657.978 6.769
8660.250 6.269
8662.540 7.346
8664.847 5.577
8667.171 8.269
8669.513 7.538
8671.872 8.154
8674.249 7.846
8676.643 7.962
8679.056 10.077
8681.486 9.692
8683.935 9.308
8686.401 7.462
8688.886 6.731
8691.390 6.000
8693.912 2.923
8696.453 9.423
8699.012 0.000
8701.591 0.000
8704.188 0.000
8706.805 0.000
8709.441 0.000
8712.096 0.000
8714.770 0.000
8717.465 0.000
8720.179 0.000
8722.912 0.000
8725.666 0.000
8728.439 0.000
8731.233 0.000
8734.047 0.000
