T 28.02.2015 21:59:46
8285.000 0.000
8286.108 11.139
8287.216 11.326
8288.324 10.313
8289.432 11.840
8290.539 10.861
8291.647 11.083
8292.755 11.652
8293.863 11.611
8294.971 12.090
8296.079 11.632
8297.187 12.375
8298.295 12.395
8299.403 12.368
8300.511 12.333
8301.618 11.445
8302.726 12.111
8303.834 12.424
8304.942 12.069
8306.050 12.367
8307.158 12.812
8308.266 12.562
8309.374 13.077
8310.482 11.403
8311.589 11.729
8312.697 11.938
8313.805 12.083
8314.913 11.799
8316.021 11.819
8317.129 11.319
8318.237 11.604
8319.345 11.347
8320.453 12.035
8321.561 11.507
8322.668 11.709
8323.776 11.910
8324.884 11.583
8325.992 13.014
8327.100 12.563
8328.208 11.986
8329.316 12.083
8330.424 11.778
8331.532 11.701
8332.639 12.361
8333.747 13.264
8334.855 13.695
8335.963 15.313
8337.071 18.618
8338.179 20.667
8339.287 23.389
8340.395 22.729
8341.503 23.709
8342.611 20.833
8343.718 21.667
8344.826 22.923
8345.934 24.875
8347.042 25.542
8348.150 25.757
8349.258 22.972
8350.366 19.597
8351.474 16.402
8352.582 16.931
8353.689 18.744
8354.797 24.903
8355.905 26.598
8357.013 28.972
8358.121 26.341
8359.229 23.798
8360.337 18.229
8361.445 16.764
8362.553 13.611
8363.661 13.570
8364.768 13.458
8365.876 14.847
8366.984 15.333
8368.092 16.479
8369.200 16.834
8370.308 16.000
8371.416 16.021
8372.524 13.937
8373.632 13.299
8374.739 12.569
8375.847 12.438
8376.955 12.972
8378.063 12.202
8379.171 12.708
8380.279 11.667
8381.387 12.021
8382.495 13.160
8383.603 11.750
8384.711 12.125
8385.818 13.125
8386.926 12.236
8388.034 12.327
8389.142 11.986
8390.250 12.716
8391.358 12.757
8392.466 12.069
8393.574 13.132
8394.682 12.646
8395.789 13.730
8396.897 13.244
8398.005 15.875
8399.113 22.382
8400.221 30.063
8401.329 39.591
8402.437 47.687
8403.545 44.896
8404.653 37.458
8405.761 29.097
8406.868 24.452
8407.976 21.820
8409.084 23.250
8410.192 23.785
8411.300 24.757
8412.408 23.257
8413.516 21.250
8414.624 17.021
8415.732 14.444
8416.839 13.611
8417.947 14.403
8419.055 15.785
8420.163 18.188
8421.271 20.424
8422.379 22.875
8423.487 24.563
8424.595 22.930
8425.703 20.216
8426.811 17.549
8427.918 14.472
8429.026 13.917
8430.134 13.653
8431.242 13.236
8432.350 13.778
8433.458 14.389
8434.566 14.444
8435.674 14.889
8436.782 18.702
8437.889 19.813
8438.997 22.111
8440.105 22.229
8441.213 19.069
8442.321 17.708
8443.429 15.431
8444.537 13.826
8445.645 13.111
8446.753 13.674
8447.861 13.521
8448.968 13.931
8450.076 14.813
8451.184 15.694
8452.292 21.763
8453.400 28.285
8454.508 35.097
8455.616 37.403
8456.724 37.368
8457.832 31.209
8458.939 24.854
8460.047 19.125
8461.155 16.313
8462.263 13.972
8463.371 13.798
8464.479 13.945
8465.587 13.528
8466.695 13.104
8467.803 14.229
8468.911 15.715
8470.018 19.132
8471.126 21.118
8472.234 22.646
8473.342 24.785
8474.450 23.403
8475.558 20.930
8476.666 19.319
8477.774 15.451
8478.882 14.805
8479.989 13.167
8481.097 13.319
8482.205 13.708
8483.313 16.013
8484.421 21.667
8485.529 27.375
8486.637 34.472
8487.745 39.500
8488.853 43.799
8489.961 43.236
8491.068 39.563
8492.176 31.715
8493.284 24.139
8494.392 19.431
8495.500 15.452
8496.608 15.181
8497.716 13.986
8498.824 15.146
8499.932 14.028
8501.039 13.541
8502.147 13.777
8503.255 13.201
8504.363 14.035
8505.471 14.972
8506.579 14.584
8507.687 14.841
8508.795 15.972
8509.903 17.729
8511.011 19.167
8512.118 20.313
8513.226 21.861
8514.334 22.035
8515.442 21.389
8516.550 19.223
8517.658 18.410
8518.766 16.035
8519.874 14.938
8520.982 14.681
8522.089 15.167
8523.197 16.743
8524.305 21.966
8525.413 28.369
8526.521 33.930
8527.629 35.854
8528.737 36.160
8529.845 32.535
8530.953 26.597
8532.061 22.535
8533.168 17.597
8534.276 15.403
8535.384 14.375
8536.492 14.388
8537.600 14.660
8538.708 14.222
8539.816 13.958
8540.924 14.563
8542.032 14.757
8543.139 13.208
8544.247 14.000
8545.355 13.479
8546.463 13.139
8547.571 13.806
8548.679 13.604
8549.787 13.597
8550.895 14.208
8552.003 14.027
8553.111 13.903
8554.218 16.084
8555.326 16.382
8556.434 18.798
8557.542 18.972
8558.650 19.306
8559.758 17.111
8560.866 16.444
8561.974 15.819
8563.082 13.827
8564.189 14.625
8565.297 16.563
8566.405 19.292
8567.513 24.160
8568.621 25.993
8569.729 25.431
8570.837 22.916
8571.945 20.299
8573.053 17.444
8574.161 14.201
8575.268 13.451
8576.376 13.896
8577.484 13.597
8578.592 14.528
8579.700 14.458
8580.808 13.993
8581.916 13.896
8583.024 14.535
8584.132 13.923
8585.239 14.354
8586.347 14.875
8587.455 14.569
8588.563 14.361
8589.671 15.563
8590.779 14.166
8591.887 13.743
8592.995 13.861
8594.103 14.312
8595.211 13.729
8596.318 13.757
8597.426 13.896
8598.534 14.889
8599.642 15.305
8600.750 14.847
8601.858 17.021
8602.966 15.736
8604.074 15.403
8605.182 15.014
8606.289 14.410
8607.397 14.257
8608.505 14.840
8609.613 16.862
8610.721 18.306
8611.829 19.458
8612.937 18.632
8614.045 16.910
8615.153 14.924
8616.261 14.327
8617.368 14.437
8618.476 14.229
8619.584 13.639
8620.692 14.688
8621.800 14.166
8622.908 14.174
8624.016 14.194
8625.124 14.313
8626.232 14.118
8627.339 13.979
8628.447 13.917
8629.555 13.438
8630.663 14.208
8631.771 14.145
8632.879 14.535
8633.987 15.264
8635.095 14.118
8636.203 13.382
8637.311 14.701
8638.418 13.723
8639.526 14.937
8640.634 14.069
8641.742 13.840
8642.850 13.736
8643.958 13.875
8645.066 14.298
8646.174 14.486
8647.282 14.826
8648.389 16.049
8649.497 15.514
8650.605 15.757
8651.713 15.340
8652.821 15.368
8653.929 15.528
8655.037 14.743
8656.145 15.639
8657.253 16.486
8658.361 16.382
8659.468 15.688
8660.576 15.208
8661.684 14.549
8662.792 14.416
8663.900 15.111
8665.008 14.452
8666.116 14.626
8667.224 14.979
8668.332 14.368
8669.439 14.535
8670.547 14.361
8671.655 15.493
8672.763 14.785
8673.871 16.333
8674.979 16.639
8676.087 17.486
8677.195 16.826
8678.303 17.236
8679.411 16.729
8680.518 15.493
8681.626 14.299
8682.734 6.951
8683.842 0.000
8684.950 0.000
8686.058 0.000
8687.166 0.000
8688.274 0.000
8689.382 0.000
8690.489 0.000
8691.597 0.000
8692.705 0.000
8693.813 0.000
8694.921 0.000
8696.029 0.000
8697.137 0.000
8698.245 0.000
8699.353 0.000
8700.461 0.000
8701.568 0.000
8702.676 0.000
8703.784 0.000
8704.892 0.000
8706.000 0.000
