8101.250 0.000
8104.416 7.353
8107.561 6.765
8110.684 7.559
8113.786 6.912
8116.866 6.382
8119.925 6.618
8122.963 6.971
8125.980 8.029
8128.976 7.382
8131.951 7.324
8134.905 6.147
8137.839 6.471
8140.753 7.382
8143.646 7.235
8146.518 7.735
8149.371 8.382
8152.203 8.206
8155.016 8.088
8157.809 7.294
8160.582 7.059
8163.335 8.029
8166.069 7.235
8168.783 7.088
8171.478 7.088
8174.154 7.618
8176.811 7.088
8179.449 7.412
8182.068 7.794
8184.669 22.794
8187.250 6.676
8189.813 6.500
8192.358 6.000
8194.885 7.559
8197.393 6.824
8199.883 7.000
8202.355 7.206
8204.809 6.529
8207.246 7.441
8209.665 7.412
8212.066 7.118
8214.450 7.382
8216.816 6.912
8219.166 7.794
8221.498 8.412
8223.813 10.147
8226.111 11.559
8228.393 13.588
8230.658 16.059
8232.906 18.824
8235.138 18.912
8237.353 15.971
8239.552 16.265
8241.735 17.735
8243.902 17.559
8246.053 21.324
8248.189 22.353
8250.308 18.676
8252.412 16.882
8254.501 15.382
8256.574 12.265
8258.632 11.441
8260.675 14.941
8262.702 17.235
8264.715 22.765
8266.713 26.088
8268.696 24.412
8270.665 18.294
8272.619 15.559
8274.559 11.147
8276.484 9.176
8278.395 9.559
8280.292 8.735
8282.176 10.059
8284.045 9.647
8285.901 12.147
8287.743 11.765
8289.571 11.235
8291.386 11.059
8293.188 8.882
8294.976 7.882
8296.752 8.559
8298.514 8.118
8300.264 6.912
8302.001 8.765
8303.725 7.912
8305.437 6.676
8307.136 7.235
8308.823 7.971
8310.498 7.882
8312.160 7.206
8313.811 7.706
8315.449 7.735
8317.076 6.676
8318.692 6.941
8320.295 8.059
8321.888 7.824
8323.468 7.706
8325.038 8.000
8326.597 8.147
8328.144 7.382
8329.681 9.118
8331.207 11.618
8332.722 15.882
8334.226 26.059
8335.720 40.971
8337.204 46.265
8338.677 40.765
8340.141 36.853
8341.594 26.971
8343.037 21.618
8344.471 16.206
8345.894 34.735
8347.309 18.882
8348.713 21.941
8350.109 17.882
8351.495 17.618
8352.871 12.471
8354.239 9.559
8355.598 9.176
8356.948 9.941
8358.289 12.500
8359.622 18.353
8360.946 24.382
8362.262 30.706
8363.569 36.000
8364.869 35.912
8366.160 26.882
8367.443 19.529
8368.718 14.853
8369.986 9.941
8371.246 7.176
8372.498 7.206
8373.743 7.441
8374.981 7.676
8376.211 10.412
8377.435 9.618
8378.651 13.059
8379.861 15.588
8381.063 17.029
8382.259 15.647
8383.449 14.882
8384.632 10.794
8385.809 10.500
8386.979 8.147
8388.144 8.706
8389.302 7.853
8390.454 8.500
8391.601 7.794
8392.742 7.971
8393.877 10.412
8395.007 17.559
8396.132 22.735
8397.251 29.647
8398.365 33.029
8399.475 34.559
8400.579 29.088
8401.678 19.529
8402.773 14.971
8403.863 8.824
8404.949 10.294
8406.030 6.147
8407.107 7.824
8408.180 7.382
8409.249 8.235
8410.313 9.676
8411.375 10.647
8412.432 11.853
8413.485 15.971
8414.536 17.029
8415.582 23.971
8416.626 17.206
8417.666 17.794
8418.703 13.559
8419.738 11.088
8420.769 9.000
8421.798 7.500
8422.824 8.265
8423.847 8.971
8424.868 10.794
8425.887 14.706
8426.904 22.647
8427.918 29.941
8428.931 33.265
8429.941 56.088
8430.950 34.912
8431.957 36.353
8432.963 27.794
8433.967 21.147
8434.970 14.794
8435.972 9.294
8436.973 8.706
8437.972 9.471
8438.971 7.794
8439.969 6.882
8440.966 7.029
8441.963 10.735
8442.959 12.529
8443.955 21.353
8444.950 26.941
8445.946 34.147
8446.941 35.206
8447.937 36.529
8448.932 45.059
8449.928 29.029
8450.925 24.235
8451.922 20.382
8452.919 18.176
8453.918 16.176
8454.917 15.471
8455.917 11.735
8456.918 9.441
8457.921 9.118
8458.924 9.324
8459.929 8.618
8460.936 10.324
8461.944 15.971
8462.954 22.676
8463.966 26.971
8464.979 32.765
8465.995 29.559
8467.013 31.382
8468.033 22.176
8469.055 16.500
8470.080 11.853
8471.108 8.353
8472.138 9.029
8473.171 7.529
8474.207 7.765
8475.246 8.441
8476.288 9.353
8477.334 7.471
8478.382 12.000
8479.435 10.853
8480.490 8.794
8481.550 8.059
8482.613 9.059
8483.680 8.088
8484.751 8.059
8485.827 9.618
8486.906 16.529
8487.990 7.735
8489.078 8.529
8490.171 10.471
8491.268 11.941
8492.371 12.824
8493.478 15.647
8494.590 12.941
8495.707 12.735
8496.829 10.176
8497.957 10.765
8499.090 8.912
8500.229 14.088
8501.373 10.882
8502.523 14.118
8503.679 19.029
8504.841 21.676
8506.009 20.941
8507.183 18.176
8508.363 14.324
8509.550 11.794
8510.743 10.500
8511.943 8.353
8513.150 9.000
8514.363 8.059
8515.584 7.853
8516.811 8.265
8518.046 8.412
8519.288 8.500
8520.537 8.088
8521.794 8.912
8523.058 9.206
8524.330 15.029
8525.610 8.647
8526.898 10.294
8528.194 9.088
8529.498 7.706
8530.810 8.324
8532.131 8.735
8533.460 9.824
8534.797 9.294
8536.144 8.853
8537.499 8.412
8538.863 9.382
8540.236 9.118
8541.618 10.382
8543.010 11.706
8544.410 11.029
8545.821 10.559
8547.240 10.471
8548.670 9.882
8550.109 9.882
8551.558 10.118
8553.017 11.206
8554.486 13.618
8555.966 13.088
8557.455 11.882
8558.956 10.941
8560.466 9.382
8561.988 8.000
8563.520 7.206
8565.063 7.029
8566.617 8.765
8568.182 7.500
8569.758 8.382
8571.345 12.265
8572.944 8.000
8574.554 7.147
8576.177 7.529
8577.810 8.000
8579.456 7.588
8581.113 8.147
8582.783 7.029
8584.465 8.353
8586.159 8.029
8587.865 7.588
8589.584 7.912
8591.316 7.529
8593.060 8.324
8594.817 7.588
8596.587 7.176
8598.370 6.235
8600.167 7.353
8601.976 7.735
8603.799 7.735
8605.635 7.088
8607.485 11.000
8609.349 7.294
8611.226 9.529
8613.118 9.471
8615.023 9.059
8616.942 9.265
8618.876 8.294
8620.824 8.765
8622.787 10.000
8624.764 11.088
8626.756 10.882
8628.762 756.176
8630.784 8.882
8632.820 10.912
8634.872 8.529
8636.938 9.324
8639.020 8.529
8641.118 7.412
8643.231 8.059
8645.360 8.853
8647.504 33.324
8649.665 9.088
8651.841 9.618
8654.033 9.853
8656.242 10.206
8658.467 11.206
8660.708 11.206
8662.966 11.382
8665.241 12.676
8667.532 13.000
8669.840 11.706
8672.165 99.529
8674.507 8.676
8676.866 4.529
8679.243 0.000
8681.637 0.000
8684.049 0.000
8686.478 0.000
8688.924 0.000
8691.389 0.000
8693.872 0.000
8696.372 0.000
8698.891 0.000
8701.428 0.000
8703.984 0.000
8706.558 0.000
8709.150 0.000
8711.761 0.000
8714.391 0.000
8717.040 0.000
8719.708 0.000
8722.396 0.000
8725.102 0.000
8727.828 0.000
8730.573 0.000
