T 29.02.2016 03:59:53
8285.000 0.000
8286.108 16.562
8287.216 15.868
8288.324 15.784
8289.432 16.028
8290.539 15.840
8291.647 15.930
8292.755 16.653
8293.863 17.958
8294.971 17.236
8296.079 17.500
8297.187 18.979
8298.295 18.035
8299.403 17.667
8300.511 19.306
8301.618 18.146
8302.726 19.118
8303.834 19.312
8304.942 18.618
8306.050 18.882
8307.158 17.841
8308.266 18.159
8309.374 18.250
8310.482 17.764
8311.589 17.389
8312.697 16.688
8313.805 17.194
8314.913 17.188
8316.021 16.812
8317.129 15.972
8318.237 16.056
8319.345 16.403
8320.453 17.528
8321.561 17.382
8322.668 17.062
8323.776 18.021
8324.884 18.625
8325.992 15.979
8327.100 17.229
8328.208 17.222
8329.316 18.514
8330.424 16.937
8331.532 16.687
8332.639 16.680
8333.747 17.695
8334.855 18.888
8335.963 21.541
8337.071 22.479
8338.179 24.688
8339.287 26.201
8340.395 24.931
8341.503 24.833
8342.611 25.542
8343.718 24.736
8344.826 27.465
8345.934 28.521
8347.042 29.062
8348.150 28.277
8349.258 26.958
8350.366 23.521
8351.474 22.403
8352.582 24.174
8353.689 25.993
8354.797 30.618
8355.905 34.785
8357.013 35.916
8358.121 33.598
8359.229 28.549
8360.337 24.278
8361.445 21.145
8362.553 18.938
8363.661 18.222
8364.768 18.764
8365.876 20.389
8366.984 22.146
8368.092 22.597
8369.200 21.736
8370.308 23.041
8371.416 19.597
8372.524 18.979
8373.632 18.577
8374.739 18.028
8375.847 18.389
8376.955 17.521
8378.063 18.201
8379.171 18.750
8380.279 18.250
8381.387 17.194
8382.495 18.354
8383.603 17.444
8384.711 16.687
8385.818 17.437
8386.926 18.021
8388.034 17.688
8389.142 17.348
8390.250 18.354
8391.358 18.702
8392.466 18.701
8393.574 19.077
8394.682 19.111
8395.789 17.577
8396.897 19.910
8398.005 22.410
8399.113 28.771
8400.221 37.368
8401.329 47.014
8402.437 54.757
8403.545 53.056
8404.653 45.667
8405.761 37.764
8406.868 31.187
8407.976 29.188
8409.084 29.875
8410.192 30.736
8411.300 30.896
8412.408 29.896
8413.516 26.917
8414.624 23.139
8415.732 21.840
8416.839 21.201
8417.947 21.632
8419.055 26.847
8420.163 36.604
8421.271 46.652
8422.379 57.743
8423.487 68.500
8424.595 63.813
8425.703 53.000
8426.811 39.173
8427.918 26.118
8429.026 21.313
8430.134 19.354
8431.242 18.771
8432.350 19.458
8433.458 23.194
8434.566 19.937
8435.674 19.653
8436.782 24.000
8437.889 25.493
8438.997 27.452
8440.105 28.327
8441.213 26.458
8442.321 22.528
8443.429 20.722
8444.537 19.778
8445.645 18.854
8446.753 19.493
8447.861 19.868
8448.968 20.028
8450.076 18.937
8451.184 21.993
8452.292 26.389
8453.400 33.118
8454.508 43.388
8455.616 45.708
8456.724 47.368
8457.832 38.618
8458.939 31.076
8460.047 24.930
8461.155 20.375
8462.263 19.444
8463.371 18.076
8464.479 18.576
8465.587 19.625
8466.695 18.319
8467.803 19.660
8468.911 21.680
8470.018 23.063
8471.126 25.764
8472.234 29.312
8473.342 28.882
8474.450 27.674
8475.558 26.875
8476.666 23.056
8477.774 21.549
8478.882 19.646
8479.989 18.882
8481.097 19.764
8482.205 21.125
8483.313 23.028
8484.421 28.444
8485.529 34.708
8486.637 39.541
8487.745 47.153
8488.853 49.229
8489.961 49.528
8491.068 45.972
8492.176 37.090
8493.284 29.000
8494.392 24.319
8495.500 21.048
8496.608 18.729
8497.716 18.903
8498.824 19.264
8499.932 19.826
8501.039 19.924
8502.147 23.188
8503.255 28.750
8504.363 38.027
8505.471 46.959
8506.579 55.438
8507.687 58.972
8508.795 53.493
8509.903 48.132
8511.011 43.264
8512.118 35.729
8513.226 30.826
8514.334 27.466
8515.442 26.792
8516.550 23.465
8517.658 22.430
8518.766 20.382
8519.874 19.306
8520.982 18.972
8522.089 21.188
8523.197 23.118
8524.305 27.355
8525.413 32.986
8526.521 40.146
8527.629 41.972
8528.737 40.167
8529.845 36.445
8530.953 31.118
8532.061 26.424
8533.168 21.570
8534.276 21.111
8535.384 19.639
8536.492 21.285
8537.600 20.299
8538.708 19.972
8539.816 20.486
8540.924 20.528
8542.032 19.521
8543.139 19.903
8544.247 20.591
8545.355 20.507
8546.463 19.625
8547.571 18.861
8548.679 19.757
8549.787 18.889
8550.895 17.646
8552.003 20.820
8553.111 19.445
8554.218 21.055
8555.326 23.132
8556.434 24.625
8557.542 25.632
8558.650 24.444
8559.758 22.812
8560.866 22.618
8561.974 20.229
8563.082 18.972
8564.189 19.674
8565.297 23.111
8566.405 26.618
8567.513 28.354
8568.621 32.111
8569.729 31.834
8570.837 28.208
8571.945 26.701
8573.053 23.194
8574.161 22.160
8575.268 20.667
8576.376 20.438
8577.484 20.021
8578.592 19.472
8579.700 19.160
8580.808 19.570
8581.916 19.201
8583.024 21.035
8584.132 20.062
8585.239 21.361
8586.347 20.931
8587.455 21.125
8588.563 21.264
8589.671 21.465
8590.779 21.639
8591.887 20.153
8592.995 20.062
8594.103 20.965
8595.211 20.160
8596.318 21.507
8597.426 22.007
8598.534 21.014
8599.642 22.549
8600.750 22.674
8601.858 23.125
8602.966 22.535
8604.074 22.708
8605.182 20.563
8606.289 20.403
8607.397 19.979
8608.505 21.271
8609.613 22.382
8610.721 23.917
8611.829 24.000
8612.937 23.083
8614.045 20.979
8615.153 20.812
8616.261 20.160
8617.368 19.278
8618.476 18.437
8619.584 18.514
8620.692 20.340
8621.800 18.688
8622.908 19.055
8624.016 18.396
8625.124 19.528
8626.232 19.993
8627.339 18.895
8628.447 18.132
8629.555 19.216
8630.663 18.868
8631.771 18.750
8632.879 19.042
8633.987 19.215
8635.095 18.903
8636.203 18.889
8637.311 19.632
8638.418 19.146
8639.526 19.493
8640.634 19.222
8641.742 20.271
8642.850 19.084
8643.958 18.410
8645.066 19.430
8646.174 19.153
8647.282 19.090
8648.389 19.855
8649.497 20.098
8650.605 19.979
8651.713 21.632
8652.821 19.507
8653.929 20.396
8655.037 19.917
8656.145 20.945
8657.253 20.896
8658.361 20.722
8659.468 20.500
8660.576 20.750
8661.684 20.444
8662.792 19.063
8663.900 20.201
8665.008 20.806
8666.116 20.070
8667.224 21.480
8668.332 21.174
8669.439 21.826
8670.547 21.500
8671.655 20.980
8672.763 22.118
8673.871 23.319
8674.979 23.500
8676.087 23.840
8677.195 24.313
8678.303 25.389
8679.411 24.819
8680.518 22.166
8681.626 18.785
8682.734 5.187
8683.842 0.000
8684.950 0.000
8686.058 0.000
8687.166 0.000
8688.274 0.000
8689.382 0.000
8690.489 0.000
8691.597 0.000
8692.705 0.000
8693.813 0.000
8694.921 0.000
8696.029 0.000
8697.137 0.000
8698.245 0.000
8699.353 0.000
8700.461 0.000
8701.568 0.000
8702.676 0.000
8703.784 0.000
8704.892 0.000
8706.000 0.000
