T 29.02.2012 02:59:52
8285.000 0.000
8286.108 23.306
8287.216 23.098
8288.324 23.021
8289.432 20.451
8290.539 21.639
8291.647 23.514
8292.755 21.993
8293.863 23.223
8294.971 25.549
8296.079 25.201
8297.187 23.827
8298.295 25.917
8299.403 25.431
8300.511 24.812
8301.618 21.833
8302.726 23.806
8303.834 22.466
8304.942 22.945
8306.050 22.291
8307.158 23.077
8308.266 23.535
8309.374 23.674
8310.482 21.944
8311.589 21.250
8312.697 23.160
8313.805 21.944
8314.913 21.000
8316.021 20.583
8317.129 19.889
8318.237 22.048
8319.345 19.805
8320.453 21.174
8321.561 21.236
8322.668 21.341
8323.776 21.049
8324.884 20.056
8325.992 22.063
8327.100 21.903
8328.208 21.520
8329.316 20.847
8330.424 21.424
8331.532 21.327
8332.639 20.048
8333.747 20.576
8334.855 21.465
8335.963 22.646
8337.071 23.166
8338.179 24.368
8339.287 26.222
8340.395 25.785
8341.503 26.694
8342.611 25.945
8343.718 26.375
8344.826 26.945
8345.934 27.465
8347.042 29.444
8348.150 27.653
8349.258 25.847
8350.366 24.042
8351.474 24.361
8352.582 22.785
8353.689 25.500
8354.797 27.903
8355.905 31.812
8357.013 35.819
8358.121 31.945
8359.229 29.715
8360.337 27.597
8361.445 23.938
8362.553 21.861
8363.661 21.375
8364.768 20.694
8365.876 22.021
8366.984 22.847
8368.092 23.437
8369.200 24.146
8370.308 25.313
8371.416 22.007
8372.524 22.576
8373.632 21.305
8374.739 20.139
8375.847 20.542
8376.955 21.292
8378.063 19.660
8379.171 21.333
8380.279 19.965
8381.387 21.556
8382.495 19.944
8383.603 20.327
8384.711 19.396
8385.818 20.105
8386.926 19.715
8388.034 20.639
8389.142 19.465
8390.250 19.215
8391.358 20.403
8392.466 20.917
8393.574 20.986
8394.682 20.292
8395.789 21.646
8396.897 22.111
8398.005 22.959
8399.113 27.153
8400.221 34.459
8401.329 42.701
8402.437 49.202
8403.545 51.105
8404.653 43.347
8405.761 36.507
8406.868 31.528
8407.976 29.201
8409.084 30.590
8410.192 28.501
8411.300 30.327
8412.408 30.097
8413.516 27.487
8414.624 25.452
8415.732 23.819
8416.839 22.305
8417.947 22.437
8419.055 24.236
8420.163 27.792
8421.271 31.181
8422.379 36.326
8423.487 39.222
8424.595 39.070
8425.703 35.715
8426.811 30.666
8427.918 25.827
8429.026 23.264
8430.134 21.979
8431.242 23.806
8432.350 22.403
8433.458 21.889
8434.566 22.924
8435.674 22.910
8436.782 26.236
8437.889 27.749
8438.997 27.403
8440.105 29.555
8441.213 28.500
8442.321 28.111
8443.429 25.132
8444.537 23.882
8445.645 23.743
8446.753 23.827
8447.861 23.209
8448.968 24.035
8450.076 23.944
8451.184 25.056
8452.292 28.479
8453.400 33.896
8454.508 39.361
8455.616 44.944
8456.724 44.139
8457.832 41.014
8458.939 33.139
8460.047 27.195
8461.155 24.597
8462.263 22.723
8463.371 21.709
8464.479 21.375
8465.587 20.889
8466.695 22.896
8467.803 22.680
8468.911 23.715
8470.018 26.562
8471.126 27.549
8472.234 30.431
8473.342 30.813
8474.450 32.548
8475.558 28.667
8476.666 27.396
8477.774 24.855
8478.882 23.063
8479.989 23.417
8481.097 23.604
8482.205 22.951
8483.313 25.133
8484.421 27.959
8485.529 34.944
8486.637 39.792
8487.745 42.972
8488.853 46.007
8489.961 48.125
8491.068 42.951
8492.176 40.271
8493.284 33.313
8494.392 29.063
8495.500 24.083
8496.608 22.139
8497.716 24.271
8498.824 22.430
8499.932 21.674
8501.039 23.117
8502.147 22.396
8503.255 24.646
8504.363 27.041
8505.471 31.021
8506.579 32.264
8507.687 33.972
8508.795 33.041
8509.903 32.729
8511.011 32.104
8512.118 31.472
8513.226 29.792
8514.334 28.333
8515.442 28.458
8516.550 27.098
8517.658 24.646
8518.766 22.417
8519.874 22.014
8520.982 21.764
8522.089 23.521
8523.197 24.111
8524.305 27.132
8525.413 33.612
8526.521 37.021
8527.629 39.750
8528.737 39.716
8529.845 37.535
8530.953 33.833
8532.061 30.160
8533.168 26.007
8534.276 23.320
8535.384 22.562
8536.492 22.041
8537.600 22.542
8538.708 22.910
8539.816 22.250
8540.924 22.424
8542.032 22.361
8543.139 22.007
8544.247 21.472
8545.355 21.833
8546.463 21.973
8547.571 21.416
8548.679 21.548
8549.787 21.771
8550.895 22.805
8552.003 21.611
8553.111 21.965
8554.218 22.875
8555.326 25.299
8556.434 25.785
8557.542 27.480
8558.650 27.695
8559.758 27.278
8560.866 25.570
8561.974 25.417
8563.082 22.569
8564.189 23.966
8565.297 24.458
8566.405 26.438
8567.513 30.805
8568.621 32.702
8569.729 33.562
8570.837 30.507
8571.945 28.250
8573.053 25.361
8574.161 24.445
8575.268 25.708
8576.376 23.375
8577.484 24.618
8578.592 25.069
8579.700 24.465
8580.808 22.854
8581.916 25.660
8583.024 25.563
8584.132 25.298
8585.239 24.653
8586.347 25.896
8587.455 27.556
8588.563 27.889
8589.671 27.986
8590.779 27.375
8591.887 27.215
8592.995 28.390
8594.103 27.757
8595.211 27.986
8596.318 28.451
8597.426 31.007
8598.534 30.736
8599.642 30.625
8600.750 32.361
8601.858 29.403
8602.966 28.055
8604.074 32.701
8605.182 25.917
8606.289 24.646
8607.397 25.396
8608.505 27.903
8609.613 28.437
8610.721 29.257
8611.829 30.299
8612.937 28.257
8614.045 26.104
8615.153 25.751
8616.261 26.070
8617.368 24.354
8618.476 25.326
8619.584 23.674
8620.692 24.472
8621.800 23.646
8622.908 24.785
8624.016 23.618
8625.124 24.327
8626.232 24.007
8627.339 22.924
8628.447 22.070
8629.555 23.875
8630.663 22.465
8631.771 22.826
8632.879 23.493
8633.987 24.042
8635.095 23.285
8636.203 22.632
8637.311 23.854
8638.418 23.861
8639.526 23.263
8640.634 23.042
8641.742 22.382
8642.850 22.527
8643.958 23.743
8645.066 23.236
8646.174 22.028
8647.282 23.792
8648.389 24.139
8649.497 25.965
8650.605 24.507
8651.713 25.340
8652.821 24.034
8653.929 24.618
8655.037 26.923
8656.145 25.952
8657.253 25.195
8658.361 27.243
8659.468 27.361
8660.576 26.486
8661.684 25.417
8662.792 26.146
8663.900 24.292
8665.008 26.556
8666.116 24.854
8667.224 23.097
8668.332 25.305
8669.439 25.257
8670.547 24.680
8671.655 25.104
8672.763 25.264
8673.871 24.979
8674.979 25.591
8676.087 26.757
8677.195 27.242
8678.303 27.625
8679.411 26.062
8680.518 25.729
8681.626 20.840
8682.734 4.146
8683.842 0.000
8684.950 0.000
8686.058 0.000
8687.166 0.000
8688.274 0.000
8689.382 0.000
8690.489 0.000
8691.597 0.000
8692.705 0.000
8693.813 0.000
8694.921 0.000
8696.029 0.000
8697.137 0.000
8698.245 0.000
8699.353 0.000
8700.461 0.000
8701.568 0.000
8702.676 0.000
8703.784 0.000
8704.892 0.000
8706.000 0.000
