T 27.02.2022 04:10:15
8285.000 0.000
8286.108 42.444
8287.216 40.445
8288.324 41.743
8289.432 43.896
8290.539 42.403
8291.647 41.889
8292.755 43.167
8293.863 42.063
8294.971 41.972
8296.079 41.958
8297.187 40.313
8298.295 38.278
8299.403 37.813
8300.511 39.319
8301.618 38.570
8302.726 38.438
8303.834 40.403
8304.942 40.952
8306.050 41.306
8307.158 40.361
8308.266 41.583
8309.374 41.583
8310.482 43.146
8311.589 42.452
8312.697 43.243
8313.805 41.479
8314.913 42.466
8316.021 42.132
8317.129 43.056
8318.237 43.083
8319.345 43.229
8320.453 41.500
8321.561 42.875
8322.668 43.653
8323.776 42.083
8324.884 42.542
8325.992 42.569
8327.100 41.611
8328.208 41.666
8329.316 41.479
8330.424 41.931
8331.532 41.778
8332.639 41.513
8333.747 43.646
8334.855 43.756
8335.963 43.132
8337.071 44.423
8338.179 43.619
8339.287 42.458
8340.395 42.493
8341.503 42.556
8342.611 41.979
8343.718 42.910
8344.826 42.278
8345.934 43.112
8347.042 44.118
8348.150 47.833
8349.258 50.459
8350.366 52.632
8351.474 55.014
8352.582 53.826
8353.689 55.847
8354.797 53.736
8355.905 54.903
8357.013 56.702
8358.121 57.222
8359.229 60.063
8360.337 59.937
8361.445 55.340
8362.553 50.646
8363.661 49.375
8364.768 48.798
8365.876 51.035
8366.984 56.097
8368.092 63.354
8369.200 65.869
8370.308 65.987
8371.416 62.848
8372.524 56.528
8373.632 50.542
8374.739 47.410
8375.847 44.056
8376.955 43.931
8378.063 45.194
8379.171 48.791
8380.279 49.278
8381.387 50.979
8382.495 51.076
8383.603 49.938
8384.711 49.132
8385.818 48.132
8386.926 45.403
8388.034 44.840
8389.142 44.500
8390.250 45.667
8391.358 44.097
8392.466 46.486
8393.574 44.361
8394.682 44.389
8395.789 43.833
8396.897 44.444
8398.005 45.291
8399.113 43.833
8400.221 43.306
8401.329 43.125
8402.437 44.139
8403.545 45.354
8404.653 45.188
8405.761 43.355
8406.868 45.618
8407.976 44.285
8409.084 44.229
8410.192 45.222
8411.300 44.430
8412.408 48.681
8413.516 55.201
8414.624 62.097
8415.732 72.105
8416.839 82.312
8417.947 91.514
8419.055 94.348
8420.163 82.334
8421.271 70.604
8422.379 60.944
8423.487 57.035
8424.595 58.361
8425.703 62.535
8426.811 62.223
8427.918 61.841
8429.026 59.299
8430.134 53.139
8431.242 52.980
8432.350 46.979
8433.458 47.896
8434.566 48.749
8435.674 53.355
8436.782 61.459
8437.889 72.493
8438.997 82.868
8440.105 89.153
8441.213 87.716
8442.321 80.902
8443.429 68.577
8444.537 56.229
8445.645 50.764
8446.753 46.139
8447.861 47.597
8448.968 46.584
8450.076 47.486
8451.184 46.375
8452.292 47.958
8453.400 50.701
8454.508 53.292
8455.616 56.069
8456.724 58.792
8457.832 56.848
8458.939 57.903
8460.047 53.083
8461.155 50.173
8462.263 47.090
8463.371 45.896
8464.479 47.174
8465.587 46.764
8466.695 47.576
8467.803 46.951
8468.911 48.042
8470.018 50.382
8471.126 57.938
8472.234 66.166
8473.342 75.452
8474.450 82.667
8475.558 81.195
8476.666 75.840
8477.774 66.361
8478.882 57.619
8479.989 51.340
8481.097 48.535
8482.205 47.993
8483.313 45.604
8484.421 48.285
8485.529 46.209
8486.637 47.903
8487.745 48.195
8488.853 51.208
8489.961 56.063
8491.068 57.771
8492.176 60.049
8493.284 60.799
8494.392 58.493
8495.500 54.181
8496.608 52.910
8497.716 48.722
8498.824 48.868
8499.932 48.327
8501.039 48.548
8502.147 49.826
8503.255 50.375
8504.363 57.827
8505.471 65.944
8506.579 74.486
8507.687 83.632
8508.795 87.799
8509.903 88.889
8511.011 85.368
8512.118 77.361
8513.226 68.417
8514.334 57.535
8515.442 51.472
8516.550 48.361
8517.658 48.625
8518.766 48.014
8519.874 48.292
8520.982 48.813
8522.089 50.042
8523.197 55.959
8524.305 65.299
8525.413 75.708
8526.521 91.285
8527.629 106.389
8528.737 115.027
8529.845 116.007
8530.953 104.236
8532.061 93.639
8533.168 82.583
8534.276 71.445
8535.384 63.647
8536.492 60.646
8537.600 56.750
8538.708 54.243
8539.816 50.612
8540.924 47.986
8542.032 48.215
8543.139 48.681
8544.247 48.771
8545.355 51.319
8546.463 56.076
8547.571 62.000
8548.679 72.638
8549.787 77.215
8550.895 79.583
8552.003 75.611
8553.111 67.063
8554.218 61.257
8555.326 56.055
8556.434 51.535
8557.542 49.327
8558.650 48.257
8559.758 48.882
8560.866 48.472
8561.974 50.090
8563.082 48.104
8564.189 47.500
8565.297 50.160
8566.405 49.861
8567.513 49.000
8568.621 49.730
8569.729 48.896
8570.837 47.965
8571.945 48.645
8573.053 48.500
8574.161 48.958
8575.268 48.410
8576.376 49.729
8577.484 50.479
8578.592 51.535
8579.700 54.327
8580.808 53.812
8581.916 57.479
8583.024 58.257
8584.132 52.549
8585.239 51.598
8586.347 49.576
8587.455 49.257
8588.563 48.563
8589.671 53.069
8590.779 57.126
8591.887 59.014
8592.995 64.548
8594.103 64.882
8595.211 63.181
8596.318 58.445
8597.426 56.021
8598.534 49.903
8599.642 49.806
8600.750 48.799
8601.858 46.902
8602.966 48.819
8604.074 46.562
8605.182 48.938
8606.289 47.660
8607.397 48.645
8608.505 47.965
8609.613 48.278
8610.721 48.736
8611.829 50.708
8612.937 51.396
8614.045 49.146
8615.153 48.195
8616.261 48.347
8617.368 49.681
8618.476 48.312
8619.584 47.681
8620.692 49.229
8621.800 49.284
8622.908 50.112
8624.016 49.160
8625.124 48.361
8626.232 51.000
8627.339 52.194
8628.447 51.042
8629.555 50.104
8630.663 49.597
8631.771 47.361
8632.879 46.487
8633.987 47.750
8635.095 48.201
8636.203 51.722
8637.311 53.882
8638.418 52.924
8639.526 53.812
8640.634 51.486
8641.742 48.820
8642.850 49.153
8643.958 47.819
8645.066 48.070
8646.174 46.910
8647.282 48.896
8648.389 48.451
8649.497 48.202
8650.605 47.382
8651.713 46.895
8652.821 46.222
8653.929 47.951
8655.037 46.487
8656.145 48.354
8657.253 47.493
8658.361 47.958
8659.468 46.965
8660.576 47.368
8661.684 49.021
8662.792 48.097
8663.900 48.889
8665.008 47.452
8666.116 48.521
8667.224 48.202
8668.332 46.694
8669.439 48.104
8670.547 48.048
8671.655 46.229
8672.763 46.569
8673.871 48.729
8674.979 48.201
8676.087 49.132
8677.195 49.049
8678.303 50.542
8679.411 48.791
8680.518 47.757
8681.626 47.299
8682.734 48.361
8683.842 48.736
8684.950 49.979
8686.058 49.833
8687.166 50.465
8688.274 49.006
8689.382 48.313
8690.489 49.577
8691.597 48.952
8692.705 47.452
8693.813 48.028
8694.921 47.583
8696.029 47.972
8697.137 48.320
8698.245 49.104
8699.353 50.042
8700.461 49.048
8701.568 49.486
8702.676 20.368
8703.784 0.000
8704.892 0.000
8706.000 0.000
