8285.0	0.0
8286.107894736842	162.12121212121212
8287.215789473685	154.0909090909091
8288.323684210527	159.5151515151515
8289.431578947368	160.78787878787878
8290.53947368421	169.21212121212122
8291.647368421052	159.1818181818182
8292.755263157895	162.12121212121212
8293.863157894737	162.96969696969697
8294.97105263158	157.27272727272728
8296.078947368422	164.84848484848484
8297.186842105262	150.75757575757575
8298.294736842105	145.06060606060606
8299.402631578947	136.1818181818182
8300.51052631579	427.8787878787879
8301.618421052632	148.03030303030303
8302.726315789474	148.6969696969697
8303.834210526316	152.3939393939394
8304.942105263159	154.3030303030303
8306.05	157.57575757575756
8307.157894736842	164.33333333333334
8308.265789473684	169.15151515151516
8309.373684210526	163.24242424242425
8310.481578947369	155.9090909090909
8311.589473684211	166.42424242424244
8312.697368421053	195.1818181818182
8313.805263157894	164.0909090909091
8314.913157894736	157.78787878787878
8316.021052631579	169.6060606060606
8317.128947368421	164.5151515151515
8318.236842105263	160.42424242424244
8319.344736842106	165.3939393939394
8320.452631578948	166.36363636363637
8321.560526315789	166.3030303030303
8322.668421052631	174.57575757575756
8323.776315789473	163.42424242424244
8324.884210526316	839.3030303030303
8325.992105263158	162.15151515151516
8327.1	695.7878787878788
8328.207894736843	258.8181818181818
8329.315789473685	156.24242424242425
8330.423684210526	374.1515151515151
8331.531578947368	161.9090909090909
8332.63947368421	205.72727272727272
8333.747368421053	171.3030303030303
8334.855263157895	172.93939393939394
8335.963157894737	170.27272727272728
8337.07105263158	173.0909090909091
8338.17894736842	172.6969696969697
8339.286842105263	166.3939393939394
8340.394736842105	169.87878787878788
8341.502631578947	373.54545454545456
8342.61052631579	165.78787878787878
8343.718421052632	167.5151515151515
8344.826315789474	159.84848484848484
8345.934210526315	158.6969696969697
8347.042105263157	161.15151515151516
8348.15	172.5151515151515
8349.257894736842	518.5151515151515
8350.365789473684	163.36363636363637
8351.473684210527	174.57575757575756
8352.581578947369	171.03030303030303
8353.689473684211	167.6060606060606
8354.797368421052	166.96969696969697
8355.905263157894	181.27272727272728
8357.013157894737	179.21212121212122
8358.121052631579	168.66666666666666
8359.228947368421	171.96969696969697
8360.336842105264	167.87878787878788
8361.444736842106	379.6666666666667
8362.552631578947	168.57575757575756
8363.660526315789	164.1818181818182
8364.768421052631	171.54545454545453
8365.876315789474	170.12121212121212
8366.984210526316	170.33333333333334
8368.092105263158	178.5151515151515
8369.2	181.54545454545453
8370.307894736841	179.78787878787878
8371.415789473684	184.5151515151515
8372.523684210526	176.84848484848484
8373.631578947368	174.9090909090909
8374.73947368421	164.21212121212122
8375.847368421053	161.6969696969697
8376.955263157895	166.9090909090909
8378.063157894738	171.03030303030303
8379.171052631578	169.5151515151515
8380.27894736842	167.66666666666666
8381.386842105263	169.42424242424244
8382.494736842105	172.0
8383.602631578948	181.21212121212122
8384.71052631579	167.12121212121212
8385.818421052632	167.9090909090909
8386.926315789473	169.3939393939394
8388.034210526315	165.33333333333334
8389.142105263158	169.6060606060606
8390.25	185.03030303030303
8391.357894736842	168.75757575757575
8392.465789473685	164.72727272727272
8393.573684210527	186.84848484848484
8394.681578947368	176.4848484848485
8395.78947368421	168.4848484848485
8396.897368421052	163.93939393939394
8398.005263157895	167.66666666666666
8399.113157894737	167.06060606060606
8400.22105263158	171.1818181818182
8401.328947368422	166.54545454545453
8402.436842105262	166.42424242424244
8403.544736842105	169.4848484848485
8404.652631578947	1462.2424242424242
8405.76052631579	192.36363636363637
8406.868421052632	166.45454545454547
8407.976315789474	166.9090909090909
8409.084210526316	186.57575757575756
8410.192105263159	240.24242424242425
8411.3	168.63636363636363
8412.407894736842	315.72727272727275
8413.515789473684	173.27272727272728
8414.623684210526	177.72727272727272
8415.731578947369	195.3030303030303
8416.839473684211	194.84848484848484
8417.947368421053	199.03030303030303
8419.055263157894	206.0
8420.163157894736	196.8181818181818
8421.271052631579	188.87878787878788
8422.378947368421	192.75757575757575
8423.486842105263	180.63636363636363
8424.594736842106	603.969696969697
8425.702631578948	186.3030303030303
8426.810526315789	192.12121212121212
8427.918421052631	186.12121212121212
8429.026315789473	180.57575757575756
8430.134210526316	180.0
8431.242105263158	179.15151515151516
8432.35	173.24242424242425
8433.457894736843	179.03030303030303
8434.565789473685	176.21212121212122
8435.673684210526	173.06060606060606
8436.781578947368	176.3030303030303
8437.88947368421	182.0909090909091
8438.997368421053	183.84848484848484
8440.105263157895	185.63636363636363
8441.213157894737	198.15151515151516
8442.32105263158	177.33333333333334
8443.42894736842	182.1818181818182
8444.536842105263	189.0
8445.644736842105	320.72727272727275
8446.752631578947	177.15151515151516
8447.86052631579	188.75757575757575
8448.968421052632	238.87878787878788
8450.076315789474	178.9090909090909
8451.184210526315	177.63636363636363
8452.292105263157	180.0
8453.4	745.2727272727273
8454.507894736842	181.03030303030303
8455.615789473684	181.03030303030303
8456.723684210527	189.06060606060606
8457.831578947369	185.72727272727272
8458.939473684211	207.72727272727272
8460.047368421052	181.3030303030303
8461.155263157894	272.6363636363636
8462.263157894737	177.21212121212122
8463.371052631579	199.8181818181818
8464.478947368421	181.6969696969697
8465.586842105264	177.72727272727272
8466.694736842106	180.6060606060606
8467.802631578947	177.0
8468.910526315789	179.33333333333334
8470.018421052631	183.3939393939394
8471.126315789474	1264.3636363636363
8472.234210526316	640.4545454545455
8473.342105263158	189.57575757575756
8474.45	203.24242424242425
8475.557894736841	199.3939393939394
8476.665789473684	196.9090909090909
8477.773684210526	190.66666666666666
8478.881578947368	184.78787878787878
8479.98947368421	197.6060606060606
8481.097368421053	183.27272727272728
8482.205263157895	421.3636363636364
8483.313157894736	181.3030303030303
8484.421052631578	181.06060606060606
8485.52894736842	177.66666666666666
8486.636842105263	184.54545454545453
8487.744736842105	187.5151515151515
8488.852631578948	180.15151515151516
8489.96052631579	188.36363636363637
8491.068421052632	192.42424242424244
8492.176315789473	390.93939393939394
8493.284210526315	187.75757575757575
8494.392105263158	188.75757575757575
8495.5	359.1212121212121
8496.607894736842	186.33333333333334
8497.715789473685	185.27272727272728
8498.823684210527	179.84848484848484
8499.931578947368	185.5151515151515
8501.03947368421	200.3939393939394
8502.147368421052	177.63636363636363
8503.255263157895	184.12121212121212
8504.363157894737	194.54545454545453
8505.47105263158	253.72727272727272
8506.578947368422	206.3030303030303
8507.686842105264	203.1818181818182
8508.794736842105	208.78787878787878
8509.902631578947	1085.4848484848485
8511.01052631579	335.5151515151515
8512.118421052632	208.87878787878788
8513.226315789474	194.5151515151515
8514.334210526316	185.63636363636363
8515.442105263159	188.42424242424244
8516.55	177.15151515151516
8517.657894736842	180.78787878787878
8518.765789473684	184.63636363636363
8519.873684210526	182.8181818181818
8520.981578947369	191.36363636363637
8522.089473684211	188.72727272727272
8523.197368421053	193.9090909090909
8524.305263157894	188.5151515151515
8525.413157894736	196.42424242424244
8526.521052631579	186.9090909090909
8527.628947368421	191.66666666666666
8528.736842105263	192.12121212121212
8529.844736842106	189.42424242424244
8530.952631578948	196.87878787878788
8532.060526315789	195.27272727272728
8533.168421052631	652.7272727272727
8534.276315789473	186.87878787878788
8535.384210526316	193.3030303030303
8536.492105263158	442.6969696969697
8537.6	190.15151515151516
8538.707894736843	184.63636363636363
8539.815789473685	189.03030303030303
8540.923684210526	192.06060606060606
8542.031578947368	186.21212121212122
8543.13947368421	1185.1515151515152
8544.247368421053	428.969696969697
8545.355263157895	193.78787878787878
8546.463157894737	195.0
8547.57105263158	199.36363636363637
8548.67894736842	195.27272727272728
8549.786842105263	201.1818181818182
8550.894736842105	326.3636363636364
8552.002631578947	198.66666666666666
8553.11052631579	416.8484848484849
8554.218421052632	194.54545454545453
8555.326315789474	194.6969696969697
8556.434210526315	222.75757575757575
8557.542105263157	187.6969696969697
8558.65	190.8181818181818
8559.757894736842	183.3030303030303
8560.865789473684	185.5151515151515
8561.973684210527	189.27272727272728
8563.081578947369	1173.090909090909
8564.189473684211	183.6060606060606
8565.297368421052	186.72727272727272
8566.405263157894	184.72727272727272
8567.513157894737	191.93939393939394
8568.621052631579	191.1818181818182
8569.728947368421	606.3939393939394
8570.836842105264	188.45454545454547
8571.944736842106	187.8181818181818
8573.052631578947	185.87878787878788
8574.160526315789	186.57575757575756
8575.268421052631	197.27272727272728
8576.376315789474	183.66666666666666
8577.484210526316	206.0909090909091
8578.592105263158	458.27272727272725
8579.7	188.87878787878788
8580.807894736841	202.96969696969697
8581.915789473684	189.6969696969697
8583.023684210526	186.27272727272728
8584.131578947368	185.3030303030303
8585.23947368421	185.3939393939394
8586.347368421053	188.6969696969697
8587.455263157895	180.6060606060606
8588.563157894736	180.42424242424244
8589.671052631578	226.54545454545453
8590.77894736842	192.96969696969697
8591.886842105263	193.03030303030303
8592.994736842105	193.75757575757575
8594.102631578948	215.42424242424244
8595.21052631579	200.6969696969697
8596.318421052632	204.6060606060606
8597.426315789473	193.33333333333334
8598.534210526315	190.54545454545453
8599.642105263158	187.5151515151515
8600.75	197.15151515151516
8601.857894736842	195.93939393939394
8602.965789473685	182.42424242424244
8604.073684210527	186.57575757575756
8605.181578947368	326.3636363636364
8606.28947368421	295.3636363636364
8607.397368421052	188.42424242424244
8608.505263157895	189.75757575757575
8609.613157894737	191.5151515151515
8610.72105263158	192.12121212121212
8611.828947368422	184.9090909090909
8612.936842105264	194.33333333333334
8614.044736842105	496.06060606060606
8615.152631578947	191.8181818181818
8616.26052631579	2089.3636363636365
8617.368421052632	186.21212121212122
8618.476315789474	186.0909090909091
8619.584210526316	196.6969696969697
8620.692105263159	188.36363636363637
8621.8	260.969696969697
8622.907894736842	190.03030303030303
8624.015789473684	183.03030303030303
8625.123684210526	185.87878787878788
8626.231578947369	193.0909090909091
8627.339473684211	203.66666666666666
8628.447368421053	183.96969696969697
8629.555263157894	181.36363636363637
8630.663157894736	175.75757575757575
8631.771052631579	180.5151515151515
8632.878947368421	170.6969696969697
8633.986842105263	171.24242424242425
8635.094736842106	180.93939393939394
8636.202631578948	185.03030303030303
8637.310526315789	193.1818181818182
8638.418421052631	183.78787878787878
8639.526315789473	187.6969696969697
8640.634210526316	181.57575757575756
8641.742105263158	186.0
8642.85	189.0909090909091
8643.957894736843	194.21212121212122
8645.065789473685	377.1212121212121
8646.173684210526	184.27272727272728
8647.281578947368	202.24242424242425
8648.38947368421	193.21212121212122
8649.497368421053	189.0
8650.605263157895	190.75757575757575
8651.713157894737	190.84848484848484
8652.82105263158	190.27272727272728
8653.92894736842	188.06060606060606
8655.036842105263	187.06060606060606
8656.144736842105	194.0909090909091
8657.252631578947	192.42424242424244
8658.36052631579	189.0909090909091
8659.468421052632	188.78787878787878
8660.576315789474	191.6969696969697
8661.684210526315	192.15151515151516
8662.792105263157	184.27272727272728
8663.9	196.6969696969697
8665.007894736842	202.87878787878788
8666.115789473684	186.9090909090909
8667.223684210527	500.6363636363636
8668.331578947369	191.36363636363637
8669.439473684211	198.1818181818182
8670.547368421052	190.5151515151515
8671.655263157894	186.63636363636363
8672.763157894737	195.0
8673.871052631579	187.0909090909091
8674.978947368421	190.0
8676.086842105264	184.0909090909091
8677.194736842106	189.93939393939394
8678.302631578947	191.12121212121212
8679.410526315789	196.3939393939394
8680.518421052631	186.66666666666666
8681.626315789474	192.54545454545453
8682.734210526316	1476.4242424242425
8683.842105263158	197.78787878787878
8684.95	186.45454545454547
8686.057894736841	190.12121212121212
8687.165789473684	530.969696969697
8688.273684210526	186.24242424242425
8689.381578947368	184.06060606060606
8690.48947368421	196.1818181818182
8691.597368421053	187.6060606060606
8692.705263157895	193.3939393939394
8693.813157894736	190.87878787878788
8694.921052631578	192.87878787878788
8696.02894736842	193.75757575757575
8697.136842105263	196.96969696969697
8698.244736842105	192.5151515151515
8699.352631578948	443.3333333333333
8700.46052631579	199.66666666666666
8701.568421052632	191.72727272727272
8702.676315789473	72.0909090909091
8703.784210526315	0.0
8704.892105263158	0.0
8706.0	0.0
