8085.793 0.000
8088.852 1960.316
8091.892 1833.132
8094.912 1853.974
8097.912 1850.395
8100.894 1839.816
8103.856 1825.895
8106.799 1874.579
8109.724 1831.526
8112.629 1886.342
8115.516 1853.158
8118.383 1801.395
8121.233 1851.526
8124.063 1803.289
8126.876 1783.132
8129.670 1804.632
8132.445 1830.316
8135.203 1991.579
8137.942 1975.289
8140.664 1864.763
8143.367 2132.395
8146.053 1900.289
8148.721 1883.579
8151.371 1837.079
8154.004 1867.632
8156.619 1876.395
8159.218 1829.526
8161.798 1920.474
8164.362 1960.553
8166.908 1844.395
8169.438 1917.500
8171.951 1870.158
8174.447 1990.263
8176.926 2003.184
8179.388 1889.500
8181.834 1823.000
8184.264 1821.684
8186.677 1982.079
8189.073 1844.895
8191.454 2001.632
8193.819 1945.132
8196.167 1848.737
8198.500 1868.289
8200.817 2132.395
8203.118 1970.289
8205.404 1881.132
8207.673 1835.605
8209.928 1869.684
8212.167 1908.895
8214.391 1887.895
8216.600 1872.842
8218.793 1889.053
8220.972 1922.658
8223.135 2090.342
8225.284 1976.184
8227.418 1856.632
8229.538 1998.658
8231.643 1905.553
8233.733 1853.316
8235.809 1845.421
8237.871 2008.579
8239.919 2112.237
8241.952 1900.842
8243.972 2023.158
8245.977 2071.763
8247.969 1934.289
8249.947 1913.579
8251.911 1960.947
8253.862 2014.526
8255.799 1918.921
8257.723 1958.237
8259.634 2164.500
8261.531 1888.711
8263.416 1907.342
8265.287 1885.158
8267.145 1910.789
8268.991 1907.658
8270.824 1922.921
8272.644 1960.711
8274.451 1899.763
8276.247 1906.711
8278.029 1951.263
8279.800 1895.368
8281.558 2211.868
8283.304 2015.184
8285.038 1966.500
8286.760 2100.132
8288.471 2000.053
8290.169 1945.895
8291.856 1912.447
8293.531 1901.053
8295.195 1961.526
8296.848 2110.763
8298.489 1930.711
8300.119 1913.789
8301.738 1982.184
8303.346 1955.579
8304.942 1980.947
8306.528 1929.342
8308.104 1901.842
8309.668 1908.474
8311.222 1948.447
8312.766 1918.026
8314.299 1937.842
8315.822 1920.263
8317.334 2073.842
8318.837 1941.316
8320.329 1996.342
8321.812 1889.500
8323.284 1923.342
8324.747 1912.684
8326.201 2108.816
8327.644 1926.000
8329.078 1951.842
8330.503 2171.895
8331.918 2073.105
8333.325 1959.711
8334.722 1988.158
8336.110 2154.579
8337.489 1947.263
8338.859 1926.368
8340.220 2010.605
8341.573 2008.342
8342.917 1917.895
8344.253 1966.132
8345.580 1931.474
8346.899 2026.105
8348.210 1942.158
8349.512 1952.711
8350.807 1927.395
8352.094 2079.842
8353.372 1961.947
8354.643 1963.211
8355.906 1926.105
8357.162 2017.368
8358.410 2099.289
8359.651 1974.237
8360.884 1950.632
8362.111 2130.474
8363.330 1960.974
8364.541 1997.342
8365.746 1982.105
8366.945 1976.658
8368.136 1970.684
8369.321 1956.553
8370.499 1953.868
8371.670 1976.947
8372.835 2110.395
8373.994 1980.105
8375.147 2070.289
8376.293 1948.342
8377.433 2038.526
8378.568 1946.974
8379.696 1981.000
8380.819 1997.658
8381.936 2027.053
8383.047 1976.526
8384.153 2006.447
8385.254 2161.289
8386.349 2025.605
8387.439 2152.895
8388.523 2104.553
8389.603 2017.842
8390.678 2016.868
8391.747 1978.342
8392.812 1964.263
8393.873 1988.026
8394.928 2000.368
8395.979 2429.368
8397.026 2199.684
8398.068 2012.000
8399.107 2012.000
8400.141 2041.132
8401.170 2038.868
8402.196 2027.395
8403.218 2058.474
8404.237 2368.737
8405.251 2175.737
8406.262 2004.158
8407.269 2135.605
8408.273 1981.263
8409.274 1966.842
8410.271 2077.579
8411.265 1981.316
8412.256 2149.132
8413.244 2115.289
8414.229 2042.974
8415.212 2059.237
8416.191 2014.816
8417.168 1984.842
8418.143 2167.868
8419.115 2033.947
8420.084 2074.263
8421.052 2141.263
8422.017 1979.079
8422.980 2194.868
8423.941 2012.763
8424.901 2141.368
8425.858 2084.132
8426.814 2036.816
8427.768 2055.816
8428.720 2126.342
8429.671 2052.237
8430.621 2072.421
8431.570 2146.289
8432.517 2085.842
8433.463 2048.526
8434.408 2009.632
8435.352 2075.816
8436.296 2007.158
8437.239 2046.316
8438.181 2136.711
8439.122 2012.579
8440.063 2004.763
8441.004 2051.658
8441.944 2059.553
8442.885 2056.474
8443.825 2036.237
8444.765 2415.395
8445.705 2118.368
8446.646 2012.684
8447.586 2252.263
8448.527 2013.921
8449.469 2106.316
8450.411 2013.342
8451.353 2107.421
8452.297 2070.237
8453.241 2187.500
8454.186 2079.605
8455.132 2065.447
8456.079 2035.658
8457.027 2107.289
8457.977 2128.737
8458.928 2039.868
8459.880 2035.026
8460.834 2024.447
8461.789 2073.895
8462.746 2016.289
8463.705 2080.579
8464.666 2108.184
8465.629 2032.368
8466.594 2084.658
8467.561 2260.526
8468.530 2049.342
8469.502 2216.105
8470.476 2136.526
8471.453 2038.684
8472.432 2064.289
8473.414 2187.474
8474.399 2048.105
8475.386 2186.184
8476.377 2133.000
8477.371 2016.816
8478.367 2007.789
8479.368 2024.921
8480.371 2025.947
8481.378 2032.026
8482.388 2218.474
8483.402 2143.605
8484.420 2219.447
8485.441 2079.079
8486.467 2106.316
8487.496 2073.000
8488.529 2048.237
8489.567 2446.237
8490.608 2056.237
8491.655 2185.263
8492.705 2098.816
8493.760 2098.237
8494.820 2027.605
8495.884 2040.526
8496.953 2088.447
8498.027 2072.184
8499.106 2059.447
8500.190 2049.342
8501.279 2069.842
8502.373 2507.053
8503.473 2043.842
8504.578 2042.316
8505.689 2145.658
8506.805 2153.632
8507.927 2063.132
8509.054 2141.763
8510.188 2177.711
8511.327 2093.711
8512.473 2204.132
8513.624 2333.658
8514.782 2100.342
8515.947 2174.895
8517.117 2244.421
8518.294 2050.289
8519.478 2153.763
8520.668 2096.421
8521.865 2177.658
8523.069 2008.105
8524.280 2151.579
8525.498 2277.211
8526.724 2064.316
8527.956 2126.342
8529.196 2131.184
8530.443 2215.105
8531.697 2115.763
8532.959 2062.579
8534.229 2052.895
8535.507 2024.684
8536.792 2111.211
8538.086 2360.000
8539.387 2033.132
8540.696 2094.895
8542.014 2448.368
8543.340 2071.289
8544.675 2028.289
8546.018 2101.105
8547.369 2017.974
8548.729 2063.079
8550.098 2113.342
8551.476 2067.132
8552.863 2119.816
8554.259 2148.553
8555.663 2193.421
8557.078 2125.605
8558.501 2256.474
8559.934 2205.526
8561.376 2188.974
8562.828 2083.658
8564.289 2048.474
8565.760 2046.974
8567.242 2167.289
8568.733 2036.947
8570.234 2100.263
8571.745 2049.237
8573.266 2166.184
8574.798 2228.763
8576.340 2093.000
8577.892 2070.868
8579.455 2364.211
8581.029 2078.395
8582.613 2131.553
8584.209 2123.237
8585.815 2094.132
8587.432 2117.947
8589.061 2061.711
8590.700 2226.500
8592.351 2069.184
8594.013 2064.421
8595.687 2055.447
8597.372 2063.368
8599.069 2142.816
8600.778 2093.947
8602.498 2055.132
8604.230 2071.895
8605.975 2113.105
8607.731 2076.105
8609.500 2075.553
8611.281 2105.658
8613.074 2109.079
8614.880 2114.368
8616.698 2081.605
8618.529 2133.316
8620.373 2056.026
8622.230 2053.947
8624.099 2306.711
8625.982 2161.132
8627.877 2073.026
8629.786 2064.158
8631.708 2089.211
8633.643 2071.974
8635.592 2282.158
8637.554 2469.737
8639.530 2048.368
8641.520 2081.553
8643.524 2059.184
8645.541 2180.053
8647.573 2099.395
8649.618 2066.105
8651.678 2201.632
8653.752 2050.763
8655.840 899.579
8657.943 0.000
8660.060 0.000
8662.192 0.000
