8285.0	0.0
8286.107894736842	1960.3157894736842
8287.215789473685	1833.1315789473683
8288.323684210527	1853.9736842105262
8289.431578947368	1850.3947368421052
8290.53947368421	1839.8157894736842
8291.647368421052	1825.8947368421052
8292.755263157895	1874.578947368421
8293.863157894737	1831.5263157894738
8294.97105263158	1886.342105263158
8296.078947368422	1853.157894736842
8297.186842105262	1801.3947368421052
8298.294736842105	1851.5263157894738
8299.402631578947	1803.2894736842106
8300.51052631579	1783.1315789473683
8301.618421052632	1804.6315789473683
8302.726315789474	1830.3157894736842
8303.834210526316	1991.578947368421
8304.942105263159	1975.2894736842106
8306.05	1864.7631578947369
8307.157894736842	2132.3947368421054
8308.265789473684	1900.2894736842106
8309.373684210526	1883.578947368421
8310.481578947369	1837.078947368421
8311.589473684211	1867.6315789473683
8312.697368421053	1876.3947368421052
8313.805263157894	1829.5263157894738
8314.913157894736	1920.4736842105262
8316.021052631579	1960.5526315789473
8317.128947368421	1844.3947368421052
8318.236842105263	1917.5
8319.344736842106	1870.157894736842
8320.452631578948	1990.2631578947369
8321.560526315789	2003.1842105263158
8322.668421052631	1889.5
8323.776315789473	1823.0
8324.884210526316	1821.6842105263158
8325.992105263158	1982.078947368421
8327.1	1844.8947368421052
8328.207894736843	2001.6315789473683
8329.315789473685	1945.1315789473683
8330.423684210526	1848.7368421052631
8331.531578947368	1868.2894736842106
8332.63947368421	2132.3947368421054
8333.747368421053	1970.2894736842106
8334.855263157895	1881.1315789473683
8335.963157894737	1835.6052631578948
8337.07105263158	1869.6842105263158
8338.17894736842	1908.8947368421052
8339.286842105263	1887.8947368421052
8340.394736842105	1872.842105263158
8341.502631578947	1889.0526315789473
8342.61052631579	1922.657894736842
8343.718421052632	2090.342105263158
8344.826315789474	1976.1842105263158
8345.934210526315	1856.6315789473683
8347.042105263157	1998.657894736842
8348.15	1905.5526315789473
8349.257894736842	1853.3157894736842
8350.365789473684	1845.421052631579
8351.473684210527	2008.578947368421
8352.581578947369	2112.2368421052633
8353.689473684211	1900.842105263158
8354.797368421052	2023.157894736842
8355.905263157894	2071.7631578947367
8357.013157894737	1934.2894736842106
8358.121052631579	1913.578947368421
8359.228947368421	1960.9473684210527
8360.336842105264	2014.5263157894738
8361.444736842106	1918.921052631579
8362.552631578947	1958.2368421052631
8363.660526315789	2164.5
8364.768421052631	1888.7105263157894
8365.876315789474	1907.342105263158
8366.984210526316	1885.157894736842
8368.092105263158	1910.7894736842106
8369.2	1907.657894736842
8370.307894736841	1922.921052631579
8371.415789473684	1960.7105263157894
8372.523684210526	1899.7631578947369
8373.631578947368	1906.7105263157894
8374.73947368421	1951.2631578947369
8375.847368421053	1895.3684210526317
8376.955263157895	2211.8684210526317
8378.063157894738	2015.1842105263158
8379.171052631578	1966.5
8380.27894736842	2100.1315789473683
8381.386842105263	2000.0526315789473
8382.494736842105	1945.8947368421052
8383.602631578948	1912.4473684210527
8384.71052631579	1901.0526315789473
8385.818421052632	1961.5263157894738
8386.926315789473	2110.7631578947367
8388.034210526315	1930.7105263157894
8389.142105263158	1913.7894736842106
8390.25	1982.1842105263158
8391.357894736842	1955.578947368421
8392.465789473685	1980.9473684210527
8393.573684210527	1929.342105263158
8394.681578947368	1901.842105263158
8395.78947368421	1908.4736842105262
8396.897368421052	1948.4473684210527
8398.005263157895	1918.0263157894738
8399.113157894737	1937.842105263158
8400.22105263158	1920.2631578947369
8401.328947368422	2073.842105263158
8402.436842105262	1941.3157894736842
8403.544736842105	1996.342105263158
8404.652631578947	1889.5
8405.76052631579	1923.342105263158
8406.868421052632	1912.6842105263158
8407.976315789474	2108.815789473684
8409.084210526316	1926.0
8410.192105263159	1951.842105263158
8411.3	2171.8947368421054
8412.407894736842	2073.1052631578946
8413.515789473684	1959.7105263157894
8414.623684210526	1988.157894736842
8415.731578947369	2154.5789473684213
8416.839473684211	1947.2631578947369
8417.947368421053	1926.3684210526317
8419.055263157894	2010.6052631578948
8420.163157894736	2008.342105263158
8421.271052631579	1917.8947368421052
8422.378947368421	1966.1315789473683
8423.486842105263	1931.4736842105262
8424.594736842106	2026.1052631578948
8425.702631578948	1942.157894736842
8426.810526315789	1952.7105263157894
8427.918421052631	1927.3947368421052
8429.026315789473	2079.842105263158
8430.134210526316	1961.9473684210527
8431.242105263158	1963.2105263157894
8432.35	1926.1052631578948
8433.457894736843	2017.3684210526317
8434.565789473685	2099.2894736842104
8435.673684210526	1974.2368421052631
8436.781578947368	1950.6315789473683
8437.88947368421	2130.4736842105262
8438.997368421053	1960.9736842105262
8440.105263157895	1997.342105263158
8441.213157894737	1982.1052631578948
8442.32105263158	1976.657894736842
8443.42894736842	1970.6842105263158
8444.536842105263	1956.5526315789473
8445.644736842105	1953.8684210526317
8446.752631578947	1976.9473684210527
8447.86052631579	2110.3947368421054
8448.968421052632	1980.1052631578948
8450.076315789474	2070.2894736842104
8451.184210526315	1948.342105263158
8452.292105263157	2038.5263157894738
8453.4	1946.9736842105262
8454.507894736842	1981.0
8455.615789473684	1997.657894736842
8456.723684210527	2027.0526315789473
8457.831578947369	1976.5263157894738
8458.939473684211	2006.4473684210527
8460.047368421052	2161.2894736842104
8461.155263157894	2025.6052631578948
8462.263157894737	2152.8947368421054
8463.371052631579	2104.5526315789475
8464.478947368421	2017.842105263158
8465.586842105264	2016.8684210526317
8466.694736842106	1978.342105263158
8467.802631578947	1964.2631578947369
8468.910526315789	1988.0263157894738
8470.018421052631	2000.3684210526317
8471.126315789474	2429.3684210526317
8472.234210526316	2199.684210526316
8473.342105263158	2012.0
8474.45	2012.0
8475.557894736841	2041.1315789473683
8476.665789473684	2038.8684210526317
8477.773684210526	2027.3947368421052
8478.881578947368	2058.4736842105262
8479.98947368421	2368.7368421052633
8481.097368421053	2175.7368421052633
8482.205263157895	2004.157894736842
8483.313157894736	2135.6052631578946
8484.421052631578	1981.2631578947369
8485.52894736842	1966.842105263158
8486.636842105263	2077.5789473684213
8487.744736842105	1981.3157894736842
8488.852631578948	2149.1315789473683
8489.96052631579	2115.2894736842104
8491.068421052632	2042.9736842105262
8492.176315789473	2059.2368421052633
8493.284210526315	2014.8157894736842
8494.392105263158	1984.842105263158
8495.5	2167.8684210526317
8496.607894736842	2033.9473684210527
8497.715789473685	2074.2631578947367
8498.823684210527	2141.2631578947367
8499.931578947368	1979.078947368421
8501.03947368421	2194.8684210526317
8502.147368421052	2012.7631578947369
8503.255263157895	2141.3684210526317
8504.363157894737	2084.1315789473683
8505.47105263158	2036.8157894736842
8506.578947368422	2055.815789473684
8507.686842105264	2126.342105263158
8508.794736842105	2052.2368421052633
8509.902631578947	2072.4210526315787
8511.01052631579	2146.2894736842104
8512.118421052632	2085.842105263158
8513.226315789474	2048.5263157894738
8514.334210526316	2009.6315789473683
8515.442105263159	2075.815789473684
8516.55	2007.157894736842
8517.657894736842	2046.3157894736842
8518.765789473684	2136.7105263157896
8519.873684210526	2012.578947368421
8520.981578947369	2004.7631578947369
8522.089473684211	2051.657894736842
8523.197368421053	2059.5526315789475
8524.305263157894	2056.4736842105262
8525.413157894736	2036.2368421052631
8526.521052631579	2415.3947368421054
8527.628947368421	2118.3684210526317
8528.736842105263	2012.6842105263158
8529.844736842106	2252.2631578947367
8530.952631578948	2013.921052631579
8532.060526315789	2106.315789473684
8533.168421052631	2013.342105263158
8534.276315789473	2107.4210526315787
8535.384210526316	2070.2368421052633
8536.492105263158	2187.5
8537.6	2079.6052631578946
8538.707894736843	2065.4473684210525
8539.815789473685	2035.657894736842
8540.923684210526	2107.2894736842104
8542.031578947368	2128.7368421052633
8543.13947368421	2039.8684210526317
8544.247368421053	2035.0263157894738
8545.355263157895	2024.4473684210527
8546.463157894737	2073.8947368421054
8547.57105263158	2016.2894736842106
8548.67894736842	2080.5789473684213
8549.786842105263	2108.184210526316
8550.894736842105	2032.3684210526317
8552.002631578947	2084.657894736842
8553.11052631579	2260.5263157894738
8554.218421052632	2049.342105263158
8555.326315789474	2216.1052631578946
8556.434210526315	2136.5263157894738
8557.542105263157	2038.6842105263158
8558.65	2064.2894736842104
8559.757894736842	2187.4736842105262
8560.865789473684	2048.1052631578946
8561.973684210527	2186.184210526316
8563.081578947369	2133.0
8564.189473684211	2016.8157894736842
8565.297368421052	2007.7894736842106
8566.405263157894	2024.921052631579
8567.513157894737	2025.9473684210527
8568.621052631579	2032.0263157894738
8569.728947368421	2218.4736842105262
8570.836842105264	2143.6052631578946
8571.944736842106	2219.4473684210525
8573.052631578947	2079.0789473684213
8574.160526315789	2106.315789473684
8575.268421052631	2073.0
8576.376315789474	2048.2368421052633
8577.484210526316	2446.2368421052633
8578.592105263158	2056.2368421052633
8579.7	2185.2631578947367
8580.807894736841	2098.815789473684
8581.915789473684	2098.2368421052633
8583.023684210526	2027.6052631578948
8584.131578947368	2040.5263157894738
8585.23947368421	2088.4473684210525
8586.347368421053	2072.184210526316
8587.455263157895	2059.4473684210525
8588.563157894736	2049.342105263158
8589.671052631578	2069.842105263158
8590.77894736842	2507.0526315789475
8591.886842105263	2043.842105263158
8592.994736842105	2042.3157894736842
8594.102631578948	2145.657894736842
8595.21052631579	2153.6315789473683
8596.318421052632	2063.1315789473683
8597.426315789473	2141.7631578947367
8598.534210526315	2177.7105263157896
8599.642105263158	2093.7105263157896
8600.75	2204.1315789473683
8601.857894736842	2333.657894736842
8602.965789473685	2100.342105263158
8604.073684210527	2174.8947368421054
8605.181578947368	2244.4210526315787
8606.28947368421	2050.2894736842104
8607.397368421052	2153.7631578947367
8608.505263157895	2096.4210526315787
8609.613157894737	2177.657894736842
8610.72105263158	2008.1052631578948
8611.828947368422	2151.5789473684213
8612.936842105264	2277.2105263157896
8614.044736842105	2064.315789473684
8615.152631578947	2126.342105263158
8616.26052631579	2131.184210526316
8617.368421052632	2215.1052631578946
8618.476315789474	2115.7631578947367
8619.584210526316	2062.5789473684213
8620.692105263159	2052.8947368421054
8621.8	2024.6842105263158
8622.907894736842	2111.2105263157896
8624.015789473684	2360.0
8625.123684210526	2033.1315789473683
8626.231578947369	2094.8947368421054
8627.339473684211	2448.3684210526317
8628.447368421053	2071.2894736842104
8629.555263157894	2028.2894736842106
8630.663157894736	2101.1052631578946
8631.771052631579	2017.9736842105262
8632.878947368421	2063.0789473684213
8633.986842105263	2113.342105263158
8635.094736842106	2067.1315789473683
8636.202631578948	2119.815789473684
8637.310526315789	2148.5526315789475
8638.418421052631	2193.4210526315787
8639.526315789473	2125.6052631578946
8640.634210526316	2256.4736842105262
8641.742105263158	2205.5263157894738
8642.85	2188.9736842105262
8643.957894736843	2083.657894736842
8645.065789473685	2048.4736842105262
8646.173684210526	2046.9736842105262
8647.281578947368	2167.2894736842104
8648.38947368421	2036.9473684210527
8649.497368421053	2100.2631578947367
8650.605263157895	2049.2368421052633
8651.713157894737	2166.184210526316
8652.82105263158	2228.7631578947367
8653.92894736842	2093.0
8655.036842105263	2070.8684210526317
8656.144736842105	2364.2105263157896
8657.252631578947	2078.3947368421054
8658.36052631579	2131.5526315789475
8659.468421052632	2123.2368421052633
8660.576315789474	2094.1315789473683
8661.684210526315	2117.9473684210525
8662.792105263157	2061.7105263157896
8663.9	2226.5
8665.007894736842	2069.184210526316
8666.115789473684	2064.4210526315787
8667.223684210527	2055.4473684210525
8668.331578947369	2063.3684210526317
8669.439473684211	2142.815789473684
8670.547368421052	2093.9473684210525
8671.655263157894	2055.1315789473683
8672.763157894737	2071.8947368421054
8673.871052631579	2113.1052631578946
8674.978947368421	2076.1052631578946
8676.086842105264	2075.5526315789475
8677.194736842106	2105.657894736842
8678.302631578947	2109.0789473684213
8679.410526315789	2114.3684210526317
8680.518421052631	2081.6052631578946
8681.626315789474	2133.315789473684
8682.734210526316	2056.0263157894738
8683.842105263158	2053.9473684210525
8684.95	2306.7105263157896
8686.057894736841	2161.1315789473683
8687.165789473684	2073.0263157894738
8688.273684210526	2064.157894736842
8689.381578947368	2089.2105263157896
8690.48947368421	2071.9736842105262
8691.597368421053	2282.157894736842
8692.705263157895	2469.7368421052633
8693.813157894736	2048.3684210526317
8694.921052631578	2081.5526315789475
8696.02894736842	2059.184210526316
8697.136842105263	2180.0526315789475
8698.244736842105	2099.3947368421054
8699.352631578948	2066.1052631578946
8700.46052631579	2201.6315789473683
8701.568421052632	2050.7631578947367
8702.676315789473	899.578947368421
8703.784210526315	0.0
8704.892105263158	0.0
8706.0	0.0
