8085.793 0.000
8088.852 162.121
8091.892 154.091
8094.912 159.515
8097.912 160.788
8100.894 169.212
8103.856 159.182
8106.799 162.121
8109.724 162.970
8112.629 157.273
8115.516 164.848
8118.383 150.758
8121.233 145.061
8124.063 136.182
8126.876 427.879
8129.670 148.030
8132.445 148.697
8135.203 152.394
8137.942 154.303
8140.664 157.576
8143.367 164.333
8146.053 169.152
8148.721 163.242
8151.371 155.909
8154.004 166.424
8156.619 195.182
8159.218 164.091
8161.798 157.788
8164.362 169.606
8166.908 164.515
8169.438 160.424
8171.951 165.394
8174.447 166.364
8176.926 166.303
8179.388 174.576
8181.834 163.424
8184.264 839.303
8186.677 162.152
8189.073 695.788
8191.454 258.818
8193.819 156.242
8196.167 374.152
8198.500 161.909
8200.817 205.727
8203.118 171.303
8205.404 172.939
8207.673 170.273
8209.928 173.091
8212.167 172.697
8214.391 166.394
8216.600 169.879
8218.793 373.545
8220.972 165.788
8223.135 167.515
8225.284 159.848
8227.418 158.697
8229.538 161.152
8231.643 172.515
8233.733 518.515
8235.809 163.364
8237.871 174.576
8239.919 171.030
8241.952 167.606
8243.972 166.970
8245.977 181.273
8247.969 179.212
8249.947 168.667
8251.911 171.970
8253.862 167.879
8255.799 379.667
8257.723 168.576
8259.634 164.182
8261.531 171.545
8263.416 170.121
8265.287 170.333
8267.145 178.515
8268.991 181.545
8270.824 179.788
8272.644 184.515
8274.451 176.848
8276.247 174.909
8278.029 164.212
8279.800 161.697
8281.558 166.909
8283.304 171.030
8285.038 169.515
8286.760 167.667
8288.471 169.424
8290.169 172.000
8291.856 181.212
8293.531 167.121
8295.195 167.909
8296.848 169.394
8298.489 165.333
8300.119 169.606
8301.738 185.030
8303.346 168.758
8304.942 164.727
8306.528 186.848
8308.104 176.485
8309.668 168.485
8311.222 163.939
8312.766 167.667
8314.299 167.061
8315.822 171.182
8317.334 166.545
8318.837 166.424
8320.329 169.485
8321.812 1462.242
8323.284 192.364
8324.747 166.455
8326.201 166.909
8327.644 186.576
8329.078 240.242
8330.503 168.636
8331.918 315.727
8333.325 173.273
8334.722 177.727
8336.110 195.303
8337.489 194.848
8338.859 199.030
8340.220 206.000
8341.573 196.818
8342.917 188.879
8344.253 192.758
8345.580 180.636
8346.899 603.970
8348.210 186.303
8349.512 192.121
8350.807 186.121
8352.094 180.576
8353.372 180.000
8354.643 179.152
8355.906 173.242
8357.162 179.030
8358.410 176.212
8359.651 173.061
8360.884 176.303
8362.111 182.091
8363.330 183.848
8364.541 185.636
8365.746 198.152
8366.945 177.333
8368.136 182.182
8369.321 189.000
8370.499 320.727
8371.670 177.152
8372.835 188.758
8373.994 238.879
8375.147 178.909
8376.293 177.636
8377.433 180.000
8378.568 745.273
8379.696 181.030
8380.819 181.030
8381.936 189.061
8383.047 185.727
8384.153 207.727
8385.254 181.303
8386.349 272.636
8387.439 177.212
8388.523 199.818
8389.603 181.697
8390.678 177.727
8391.747 180.606
8392.812 177.000
8393.873 179.333
8394.928 183.394
8395.979 1264.364
8397.026 640.455
8398.068 189.576
8399.107 203.242
8400.141 199.394
8401.170 196.909
8402.196 190.667
8403.218 184.788
8404.237 197.606
8405.251 183.273
8406.262 421.364
8407.269 181.303
8408.273 181.061
8409.274 177.667
8410.271 184.545
8411.265 187.515
8412.256 180.152
8413.244 188.364
8414.229 192.424
8415.212 390.939
8416.191 187.758
8417.168 188.758
8418.143 359.121
8419.115 186.333
8420.084 185.273
8421.052 179.848
8422.017 185.515
8422.980 200.394
8423.941 177.636
8424.901 184.121
8425.858 194.545
8426.814 253.727
8427.768 206.303
8428.720 203.182
8429.671 208.788
8430.621 1085.485
8431.570 335.515
8432.517 208.879
8433.463 194.515
8434.408 185.636
8435.352 188.424
8436.296 177.152
8437.239 180.788
8438.181 184.636
8439.122 182.818
8440.063 191.364
8441.004 188.727
8441.944 193.909
8442.885 188.515
8443.825 196.424
8444.765 186.909
8445.705 191.667
8446.646 192.121
8447.586 189.424
8448.527 196.879
8449.469 195.273
8450.411 652.727
8451.353 186.879
8452.297 193.303
8453.241 442.697
8454.186 190.152
8455.132 184.636
8456.079 189.030
8457.027 192.061
8457.977 186.212
8458.928 1185.152
8459.880 428.970
8460.834 193.788
8461.789 195.000
8462.746 199.364
8463.705 195.273
8464.666 201.182
8465.629 326.364
8466.594 198.667
8467.561 416.848
8468.530 194.545
8469.502 194.697
8470.476 222.758
8471.453 187.697
8472.432 190.818
8473.414 183.303
8474.399 185.515
8475.386 189.273
8476.377 1173.091
8477.371 183.606
8478.367 186.727
8479.368 184.727
8480.371 191.939
8481.378 191.182
8482.388 606.394
8483.402 188.455
8484.420 187.818
8485.441 185.879
8486.467 186.576
8487.496 197.273
8488.529 183.667
8489.567 206.091
8490.608 458.273
8491.655 188.879
8492.705 202.970
8493.760 189.697
8494.820 186.273
8495.884 185.303
8496.953 185.394
8498.027 188.697
8499.106 180.606
8500.190 180.424
8501.279 226.545
8502.373 192.970
8503.473 193.030
8504.578 193.758
8505.689 215.424
8506.805 200.697
8507.927 204.606
8509.054 193.333
8510.188 190.545
8511.327 187.515
8512.473 197.152
8513.624 195.939
8514.782 182.424
8515.947 186.576
8517.117 326.364
8518.294 295.364
8519.478 188.424
8520.668 189.758
8521.865 191.515
8523.069 192.121
8524.280 184.909
8525.498 194.333
8526.724 496.061
8527.956 191.818
8529.196 2089.364
8530.443 186.212
8531.697 186.091
8532.959 196.697
8534.229 188.364
8535.507 260.970
8536.792 190.030
8538.086 183.030
8539.387 185.879
8540.696 193.091
8542.014 203.667
8543.340 183.970
8544.675 181.364
8546.018 175.758
8547.369 180.515
8548.729 170.697
8550.098 171.242
8551.476 180.939
8552.863 185.030
8554.259 193.182
8555.663 183.788
8557.078 187.697
8558.501 181.576
8559.934 186.000
8561.376 189.091
8562.828 194.212
8564.289 377.121
8565.760 184.273
8567.242 202.242
8568.733 193.212
8570.234 189.000
8571.745 190.758
8573.266 190.848
8574.798 190.273
8576.340 188.061
8577.892 187.061
8579.455 194.091
8581.029 192.424
8582.613 189.091
8584.209 188.788
8585.815 191.697
8587.432 192.152
8589.061 184.273
8590.700 196.697
8592.351 202.879
8594.013 186.909
8595.687 500.636
8597.372 191.364
8599.069 198.182
8600.778 190.515
8602.498 186.636
8604.230 195.000
8605.975 187.091
8607.731 190.000
8609.500 184.091
8611.281 189.939
8613.074 191.121
8614.880 196.394
8616.698 186.667
8618.529 192.545
8620.373 1476.424
8622.230 197.788
8624.099 186.455
8625.982 190.121
8627.877 530.970
8629.786 186.242
8631.708 184.061
8633.643 196.182
8635.592 187.606
8637.554 193.394
8639.530 190.879
8641.520 192.879
8643.524 193.758
8645.541 196.970
8647.573 192.515
8649.618 443.333
8651.678 199.667
8653.752 191.727
8655.840 72.091
8657.943 0.000
8660.060 0.000
8662.192 0.000
