T 20.02.2021 03:07:44
8285.000 0.000
8286.108 17.270
8287.216 16.618
8288.324 18.472
8289.432 19.188
8290.539 19.334
8291.647 17.819
8292.755 17.903
8293.863 17.944
8294.971 17.646
8296.079 17.924
8297.187 17.542
8298.295 17.549
8299.403 16.701
8300.511 16.896
8301.618 17.535
8302.726 16.584
8303.834 18.444
8304.942 18.146
8306.050 17.882
8307.158 17.542
8308.266 17.958
8309.374 18.173
8310.482 17.875
8311.589 18.055
8312.697 18.514
8313.805 19.541
8314.913 17.590
8316.021 18.118
8317.129 17.653
8318.237 18.202
8319.345 17.312
8320.453 18.139
8321.561 18.486
8322.668 17.764
8323.776 17.313
8324.884 18.049
8325.992 18.173
8327.100 18.229
8328.208 18.305
8329.316 17.181
8330.424 18.035
8331.532 18.021
8332.639 17.570
8333.747 18.180
8334.855 18.771
8335.963 17.132
8337.071 17.888
8338.179 17.493
8339.287 18.056
8340.395 17.945
8341.503 18.340
8342.611 18.208
8343.718 18.570
8344.826 19.375
8345.934 20.216
8347.042 22.263
8348.150 22.583
8349.258 26.465
8350.366 28.847
8351.474 28.035
8352.582 28.694
8353.689 28.368
8354.797 27.097
8355.905 27.944
8357.013 29.222
8358.121 30.813
8359.229 32.507
8360.337 29.472
8361.445 28.715
8362.553 25.590
8363.661 23.362
8364.768 23.514
8365.876 25.813
8366.984 30.291
8368.092 32.729
8369.200 35.299
8370.308 33.215
8371.416 30.111
8372.524 27.174
8373.632 22.403
8374.739 21.966
8375.847 19.833
8376.955 20.208
8378.063 21.194
8379.171 22.438
8380.279 22.167
8381.387 23.159
8382.495 22.951
8383.603 22.910
8384.711 20.798
8385.818 21.077
8386.926 19.750
8388.034 19.083
8389.142 19.667
8390.250 17.827
8391.358 19.104
8392.466 19.014
8393.574 17.958
8394.682 18.757
8395.789 18.257
8396.897 18.486
8398.005 18.923
8399.113 19.062
8400.221 18.202
8401.329 17.743
8402.437 18.618
8403.545 18.903
8404.653 19.243
8405.761 19.215
8406.868 18.660
8407.976 20.125
8409.084 18.111
8410.192 20.451
8411.300 19.958
8412.408 22.903
8413.516 26.924
8414.624 33.737
8415.732 41.409
8416.839 48.403
8417.947 52.486
8419.055 49.590
8420.163 43.250
8421.271 35.174
8422.379 26.993
8423.487 27.813
8424.595 30.569
8425.703 30.674
8426.811 31.062
8427.918 29.715
8429.026 26.542
8430.134 24.604
8431.242 22.257
8432.350 20.104
8433.458 20.452
8434.566 21.604
8435.674 24.792
8436.782 29.673
8437.889 36.069
8438.997 41.604
8440.105 44.389
8441.213 41.146
8442.321 36.771
8443.429 29.618
8444.537 21.910
8445.645 19.355
8446.753 19.965
8447.861 19.389
8448.968 18.931
8450.076 18.952
8451.184 19.938
8452.292 21.618
8453.400 22.743
8454.508 25.916
8455.616 26.868
8456.724 28.041
8457.832 26.257
8458.939 24.833
8460.047 23.382
8461.155 21.605
8462.263 21.014
8463.371 19.160
8464.479 19.660
8465.587 20.973
8466.695 19.055
8467.803 19.465
8468.911 19.688
8470.018 25.764
8471.126 29.695
8472.234 36.180
8473.342 42.298
8474.450 44.569
8475.558 42.869
8476.666 37.979
8477.774 30.062
8478.882 23.819
8479.989 20.590
8481.097 19.285
8482.205 19.292
8483.313 19.326
8484.421 20.250
8485.529 19.722
8486.637 19.854
8487.745 22.021
8488.853 24.798
8489.961 27.153
8491.068 29.791
8492.176 29.924
8493.284 29.312
8494.392 26.667
8495.500 23.791
8496.608 22.632
8497.716 20.604
8498.824 20.271
8499.932 20.236
8501.039 19.340
8502.147 20.979
8503.255 24.660
8504.363 29.139
8505.471 34.923
8506.579 43.416
8507.687 47.847
8508.795 49.569
8509.903 47.000
8511.011 45.826
8512.118 38.250
8513.226 31.070
8514.334 24.257
8515.442 22.493
8516.550 20.021
8517.658 19.111
8518.766 19.694
8519.874 19.361
8520.982 19.382
8522.089 20.250
8523.197 22.583
8524.305 24.806
8525.413 28.653
8526.521 30.090
8527.629 34.806
8528.737 37.472
8529.845 37.743
8530.953 35.049
8532.061 33.153
8533.168 30.695
8534.276 30.889
8535.384 28.986
8536.492 28.319
8537.600 26.604
8538.708 23.730
8539.816 22.930
8540.924 19.889
8542.032 20.215
8543.139 20.153
8544.247 21.368
8545.355 23.799
8546.463 28.313
8547.571 32.250
8548.679 38.688
8549.787 41.902
8550.895 42.473
8552.003 37.778
8553.111 33.083
8554.218 28.715
8555.326 25.028
8556.434 21.354
8557.542 20.035
8558.650 21.174
8559.758 20.556
8560.866 20.610
8561.974 21.382
8563.082 20.646
8564.189 20.528
8565.297 19.938
8566.405 20.201
8567.513 20.361
8568.621 20.299
8569.729 20.347
8570.837 20.181
8571.945 20.097
8573.053 21.465
8574.161 20.729
8575.268 20.736
8576.376 20.549
8577.484 21.931
8578.592 24.007
8579.700 26.209
8580.808 25.229
8581.916 26.291
8583.024 24.229
8584.132 23.333
8585.239 22.326
8586.347 20.945
8587.455 20.958
8588.563 21.729
8589.671 23.673
8590.779 26.819
8591.887 31.028
8592.995 33.541
8594.103 32.514
8595.211 30.285
8596.318 26.410
8597.426 22.361
8598.534 21.243
8599.642 20.827
8600.750 20.674
8601.858 21.944
8602.966 20.340
8604.074 20.521
8605.182 20.194
8606.289 19.604
8607.397 22.625
8608.505 20.611
8609.613 20.278
8610.721 20.702
8611.829 20.486
8612.937 21.132
8614.045 20.888
8615.153 20.452
8616.261 19.791
8617.368 19.750
8618.476 20.556
8619.584 19.806
8620.692 19.709
8621.800 19.438
8622.908 20.431
8624.016 20.174
8625.124 20.889
8626.232 21.638
8627.339 23.674
8628.447 23.618
8629.555 22.632
8630.663 21.930
8631.771 21.430
8632.879 21.299
8633.987 21.431
8635.095 22.729
8636.203 23.667
8637.311 26.076
8638.418 25.632
8639.526 26.549
8640.634 23.590
8641.742 21.528
8642.850 20.618
8643.958 20.958
8645.066 20.034
8646.174 19.903
8647.282 19.562
8648.389 19.618
8649.497 19.827
8650.605 20.722
8651.713 21.396
8652.821 20.736
8653.929 20.021
8655.037 20.167
8656.145 19.757
8657.253 20.132
8658.361 20.236
8659.468 20.618
8660.576 19.299
8661.684 19.667
8662.792 20.972
8663.900 21.229
8665.008 21.556
8666.116 21.028
8667.224 21.306
8668.332 20.347
8669.439 19.320
8670.547 21.132
8671.655 21.264
8672.763 20.583
8673.871 21.014
8674.979 22.222
8676.087 21.667
8677.195 22.993
8678.303 22.257
8679.411 22.181
8680.518 21.632
8681.626 21.042
8682.734 22.083
8683.842 23.521
8684.950 22.820
8686.058 22.819
8687.166 22.055
8688.274 22.166
8689.382 21.410
8690.489 21.375
8691.597 21.868
8692.705 21.542
8693.813 21.569
8694.921 21.270
8696.029 22.827
8697.137 22.049
8698.245 23.368
8699.353 23.861
8700.461 23.313
8701.568 22.278
8702.676 10.209
8703.784 0.000
8704.892 0.000
8706.000 0.000
