8096.019 0.000
8098.928 47.000
8101.819 40.379
8104.691 46.345
8107.546 45.310
8110.383 42.724
8113.202 47.276
8116.003 45.759
8118.787 41.759
8121.554 41.690
8124.303 41.310
8127.034 40.345
8129.749 38.552
8132.446 39.172
8135.126 38.069
8137.789 38.414
8140.435 39.966
8143.064 43.586
8145.677 42.828
8148.273 39.966
8150.852 43.828
8153.415 43.276
8155.961 44.034
8158.491 42.690
8161.005 45.000
8163.503 43.724
8165.984 43.862
8168.450 43.207
8170.899 44.172
8173.333 42.690
8175.751 44.034
8178.153 44.655
8180.540 40.828
8182.912 45.379
8185.267 42.966
8187.608 43.931
8189.933 41.552
8192.243 45.172
8194.538 42.759
8196.818 47.138
8199.084 42.000
8201.334 42.207
8203.569 43.103
8205.790 46.966
8207.997 40.828
8210.188 41.966
8212.366 43.552
8214.529 43.724
8216.678 45.000
8218.812 45.655
8220.933 43.138
8223.040 46.586
8225.132 45.138
8227.211 45.172
8229.276 46.414
8231.328 44.310
8233.366 49.241
8235.390 46.552
8237.401 48.552
8239.399 51.759
8241.383 56.759
8243.355 53.828
8245.313 55.966
8247.258 57.069
8249.191 55.414
8251.110 56.103
8253.017 54.172
8254.911 57.241
8256.793 57.310
8258.662 49.828
8260.518 49.414
8262.363 46.345
8264.195 50.621
8266.015 51.517
8267.823 55.759
8269.619 58.448
8271.403 58.655
8273.175 62.276
8274.935 56.241
8276.684 51.966
8278.422 48.310
8280.147 43.345
8281.862 40.690
8283.565 44.931
8285.257 47.207
8286.937 49.069
8288.607 51.069
8290.266 49.793
8291.914 48.828
8293.550 50.552
8295.177 51.103
8296.792 47.000
8298.397 44.034
8299.992 47.103
8301.576 40.862
8303.150 42.276
8304.714 45.966
8306.267 45.690
8307.811 44.793
8309.344 44.207
8310.868 44.828
8312.382 45.793
8313.886 42.621
8315.380 45.276
8316.865 42.655
8318.340 48.552
8319.806 43.345
8321.263 42.862
8322.711 45.069
8324.149 46.483
8325.578 45.034
8326.999 43.345
8328.410 44.414
8329.813 44.379
8331.207 43.345
8332.592 52.276
8333.969 53.000
8335.337 63.241
8336.697 72.586
8338.049 77.586
8339.392 84.276
8340.727 84.276
8342.055 72.379
8343.374 65.655
8344.685 58.483
8345.989 59.586
8347.285 54.207
8348.573 58.724
8349.854 60.552
8351.127 59.966
8352.393 58.414
8353.651 47.207
8354.903 48.552
8356.147 47.379
8357.384 45.069
8358.615 48.310
8359.838 47.759
8361.055 51.793
8362.264 57.379
8363.468 60.414
8364.664 59.586
8365.855 59.931
8367.039 52.862
8368.216 48.724
8369.388 48.276
8370.553 47.345
8371.712 47.483
8372.865 50.034
8374.013 48.172
8375.154 46.000
8376.290 49.379
8377.421 48.759
8378.545 51.241
8379.665 55.483
8380.779 57.276
8381.887 57.897
8382.991 54.897
8384.089 56.759
8385.183 52.103
8386.271 50.414
8387.355 44.483
8388.433 49.897
8389.507 46.862
8390.577 44.448
8391.642 49.552
8392.702 48.966
8393.758 48.931
8394.810 51.172
8395.858 61.069
8396.901 66.931
8397.941 74.138
8398.976 79.310
8400.008 76.414
8401.036 62.483
8402.060 56.069
8403.081 54.483
8404.098 49.621
8405.111 46.759
8406.122 45.379
8407.129 47.207
8408.132 45.241
8409.133 47.207
8410.131 48.138
8411.126 52.759
8412.117 51.069
8413.107 54.931
8414.093 62.138
8415.077 57.690
8416.058 55.345
8417.037 60.379
8418.014 52.793
8418.988 53.138
8419.960 48.862
8420.930 49.000
8421.898 49.276
8422.864 48.241
8423.828 52.586
8424.790 52.172
8425.751 63.931
8426.710 68.000
8427.668 74.034
8428.624 82.793
8429.579 83.207
8430.532 79.138
8431.485 75.069
8432.436 71.379
8433.386 58.103
8434.336 51.897
8435.284 50.448
8436.232 53.552
8437.179 47.759
8438.126 48.310
8439.072 47.517
8440.017 47.034
8440.962 43.931
8441.907 47.448
8442.852 47.172
8443.797 50.931
8444.741 48.034
8445.686 48.552
8446.631 51.655
8447.576 51.483
8448.522 55.759
8449.467 58.862
8450.414 59.414
8451.361 58.414
8452.308 61.690
8453.257 59.448
8454.206 57.379
8455.156 51.414
8456.107 48.379
8457.059 49.897
8458.013 50.414
8458.967 48.517
8459.923 50.966
8460.881 49.690
8461.839 61.931
8462.800 65.552
8463.762 69.310
8464.726 73.759
8465.691 71.448
8466.659 70.690
8467.629 60.000
8468.600 57.552
8469.574 54.828
8470.550 49.172
8471.529 46.862
8472.510 50.276
8473.493 50.793
8474.479 52.828
8475.468 50.241
8476.459 50.931
8477.453 50.000
8478.450 48.586
8479.450 49.724
8480.454 51.483
8481.460 48.517
8482.470 50.828
8483.483 48.690
8484.499 47.931
8485.519 50.345
8486.543 50.690
8487.570 48.552
8488.601 51.241
8489.636 49.069
8490.675 49.724
8491.717 54.000
8492.764 53.310
8493.815 53.103
8494.871 55.966
8495.930 52.793
8496.994 49.414
8498.063 46.966
8499.136 45.138
8500.214 53.862
8501.297 56.138
8502.384 56.828
8503.477 60.828
8504.574 63.966
8505.676 62.207
8506.784 61.138
8507.897 55.172
8509.016 49.793
8510.139 48.828
8511.269 49.034
8512.404 48.483
8513.544 48.345
8514.690 46.483
8515.843 49.759
8517.001 51.966
8518.165 49.000
8519.335 48.897
8520.512 51.862
8521.695 47.966
8522.884 50.483
8524.079 47.931
8525.281 48.483
8526.490 47.655
8527.705 49.897
8528.927 51.897
8530.156 48.966
8531.392 49.069
8532.635 52.276
8533.885 50.621
8535.143 51.724
8536.407 48.690
8537.679 49.000
8538.958 53.966
8540.245 51.448
8541.540 51.069
8542.842 52.034
8544.152 50.414
8545.470 47.552
8546.796 47.828
8548.129 49.759
8549.471 49.276
8550.821 52.414
8552.180 48.241
8553.547 54.586
8554.922 53.621
8556.306 49.828
8557.698 58.000
8559.099 51.759
8560.509 50.345
8561.928 52.724
8563.355 49.586
8564.792 52.034
8566.238 50.379
8567.693 49.966
8569.157 49.310
8570.631 47.103
8572.114 48.586
8573.607 50.966
8575.109 51.138
8576.621 49.517
8578.143 47.069
8579.674 52.000
8581.216 47.138
8582.768 48.517
8584.330 49.828
8585.902 49.448
8587.484 53.690
8589.077 48.690
8590.680 47.345
8592.293 54.483
8593.918 51.690
8595.553 50.000
8597.199 50.138
8598.855 50.655
8600.523 48.483
8602.202 50.621
8603.891 47.655
8605.592 48.345
8607.305 49.414
8609.028 52.483
8610.764 46.966
8612.510 50.310
8614.269 54.862
8616.039 52.793
8617.821 51.103
8619.614 50.862
8621.420 51.483
8623.238 51.379
8625.068 49.759
8626.910 51.207
8628.764 50.379
8630.631 49.000
8632.511 52.241
8634.402 52.483
8636.307 48.276
8638.224 52.931
8640.154 50.034
8642.097 52.517
8644.053 48.517
8646.022 49.172
8648.004 53.897
8649.999 51.483
8652.008 20.517
8654.030 0.000
8656.065 0.000
8658.114 0.000
