T 24.02.2013 04:59:44
8285.000 0.000
8286.108 6.563
8287.216 6.611
8288.324 6.284
8289.432 6.507
8290.539 6.084
8291.647 6.021
8292.755 6.354
8293.863 6.722
8294.971 6.840
8296.079 6.986
8297.187 6.861
8298.295 6.584
8299.403 6.778
8300.511 7.056
8301.618 7.347
8302.726 6.799
8303.834 6.847
8304.942 7.160
8306.050 6.951
8307.158 7.278
8308.266 6.958
8309.374 6.986
8310.482 6.750
8311.589 6.465
8312.697 6.278
8313.805 6.896
8314.913 6.798
8316.021 6.604
8317.129 6.479
8318.237 6.535
8319.345 6.729
8320.453 6.882
8321.561 6.833
8322.668 6.570
8323.776 6.944
8324.884 6.930
8325.992 6.695
8327.100 7.070
8328.208 6.160
8329.316 7.160
8330.424 8.014
8331.532 6.744
8332.639 7.236
8333.747 8.257
8334.855 9.479
8335.963 10.368
8337.071 12.958
8338.179 14.729
8339.287 15.368
8340.395 16.237
8341.503 15.778
8342.611 14.326
8343.718 14.951
8344.826 15.458
8345.934 15.937
8347.042 16.097
8348.150 15.556
8349.258 14.341
8350.366 12.313
8351.474 11.132
8352.582 10.743
8353.689 12.590
8354.797 15.653
8355.905 17.972
8357.013 18.368
8358.121 16.521
8359.229 14.541
8360.337 11.076
8361.445 10.028
8362.553 7.944
8363.661 7.562
8364.768 8.167
8365.876 8.924
8366.984 10.021
8368.092 10.681
8369.200 10.208
8370.308 10.542
8371.416 9.452
8372.524 7.882
8373.632 7.452
8374.739 7.639
8375.847 7.375
8376.955 7.576
8378.063 7.062
8379.171 6.944
8380.279 7.180
8381.387 6.875
8382.495 6.785
8383.603 7.111
8384.711 7.076
8385.818 6.847
8386.926 7.410
8388.034 7.028
8389.142 6.924
8390.250 7.035
8391.358 7.389
8392.466 7.187
8393.574 7.479
8394.682 7.333
8395.789 7.333
8396.897 8.403
8398.005 9.326
8399.113 13.021
8400.221 18.243
8401.329 24.757
8402.437 29.278
8403.545 27.868
8404.653 23.493
8405.761 18.563
8406.868 14.701
8407.976 13.375
8409.084 14.139
8410.192 15.424
8411.300 15.889
8412.408 14.070
8413.516 12.299
8414.624 10.466
8415.732 9.007
8416.839 7.987
8417.947 8.534
8419.055 10.083
8420.163 12.417
8421.271 15.958
8422.379 19.187
8423.487 21.035
8424.595 21.181
8425.703 17.146
8426.811 13.021
8427.918 10.368
8429.026 8.146
8430.134 7.764
8431.242 7.598
8432.350 7.493
8433.458 7.577
8434.566 7.847
8435.674 8.548
8436.782 11.035
8437.889 12.062
8438.997 13.569
8440.105 13.139
8441.213 12.764
8442.321 11.354
8443.429 9.702
8444.537 8.264
8445.645 7.542
8446.753 7.687
8447.861 7.375
8448.968 7.583
8450.076 7.931
8451.184 8.965
8452.292 12.521
8453.400 16.750
8454.508 20.931
8455.616 24.181
8456.724 23.847
8457.832 20.291
8458.939 16.632
8460.047 12.861
8461.155 8.854
8462.263 7.874
8463.371 7.993
8464.479 7.917
8465.587 7.403
8466.695 7.785
8467.803 8.563
8468.911 9.625
8470.018 11.084
8471.126 14.194
8472.234 14.250
8473.342 15.667
8474.450 14.903
8475.558 12.743
8476.666 11.715
8477.774 9.681
8478.882 8.306
8479.989 7.750
8481.097 7.736
8482.205 8.243
8483.313 9.250
8484.421 12.715
8485.529 16.896
8486.637 21.083
8487.745 25.090
8488.853 27.264
8489.961 28.097
8491.068 25.202
8492.176 19.868
8493.284 14.403
8494.392 11.062
8495.500 9.021
8496.608 7.812
8497.716 7.673
8498.824 7.646
8499.932 7.680
8501.039 8.014
8502.147 8.250
8503.255 9.875
8504.363 13.042
8505.471 15.597
8506.579 17.945
8507.687 18.896
8508.795 18.938
8509.903 18.625
8511.011 16.792
8512.118 16.604
8513.226 15.340
8514.334 14.806
8515.442 13.243
8516.550 12.028
8517.658 10.264
8518.766 9.299
8519.874 7.958
8520.982 6.993
8522.089 8.202
8523.197 9.743
8524.305 12.458
8525.413 17.549
8526.521 20.660
8527.629 22.959
8528.737 22.917
8529.845 19.855
8530.953 16.646
8532.061 13.403
8533.168 10.848
8534.276 9.090
8535.384 7.423
8536.492 8.278
8537.600 7.583
8538.708 8.257
8539.816 8.208
8540.924 7.673
8542.032 7.958
8543.139 7.847
8544.247 8.132
8545.355 7.215
8546.463 7.743
8547.571 7.847
8548.679 8.209
8549.787 7.507
8550.895 7.438
8552.003 8.659
8553.111 9.882
8554.218 10.424
8555.326 12.021
8556.434 14.896
8557.542 12.007
8558.650 10.521
8559.758 9.146
8560.866 8.257
8561.974 7.882
8563.082 8.195
8564.189 9.889
8565.297 12.347
8566.405 15.340
8567.513 16.709
8568.621 17.278
8569.729 15.549
8570.837 13.160
8571.945 10.493
8573.053 9.438
8574.161 7.924
8575.268 7.479
8576.376 7.792
8577.484 7.576
8578.592 7.785
8579.700 7.278
8580.808 7.424
8581.916 7.778
8583.024 7.965
8584.132 8.055
8585.239 7.702
8586.347 7.653
8587.455 7.598
8588.563 7.840
8589.671 7.458
8590.779 7.875
8591.887 7.785
8592.995 7.354
8594.103 8.209
8595.211 7.438
8596.318 8.348
8597.426 7.708
8598.534 7.896
8599.642 9.278
8600.750 9.909
8601.858 9.695
8602.966 9.424
8604.074 9.077
8605.182 7.583
8606.289 7.708
8607.397 7.639
8608.505 9.702
8609.613 10.583
8610.721 12.458
8611.829 11.577
8612.937 10.382
8614.045 9.278
8615.153 8.417
8616.261 7.139
8617.368 7.354
8618.476 6.848
8619.584 7.222
8620.692 7.243
8621.800 7.194
8622.908 7.715
8624.016 7.111
8625.124 7.548
8626.232 7.340
8627.339 7.874
8628.447 7.479
8629.555 7.681
8630.663 7.813
8631.771 7.465
8632.879 7.590
8633.987 7.160
8635.095 7.514
8636.203 7.451
8637.311 8.021
8638.418 7.319
8639.526 7.236
8640.634 8.007
8641.742 7.264
8642.850 7.472
8643.958 7.785
8645.066 7.521
8646.174 8.049
8647.282 8.827
8648.389 8.514
8649.497 9.118
8650.605 9.062
8651.713 8.216
8652.821 8.667
8653.929 8.493
8655.037 8.556
8656.145 9.785
8657.253 9.097
8658.361 9.479
8659.468 9.021
8660.576 8.903
8661.684 8.000
8662.792 7.841
8663.900 8.396
8665.008 8.042
8666.116 8.069
8667.224 7.903
8668.332 7.979
8669.439 7.896
8670.547 8.861
8671.655 8.459
8672.763 8.479
8673.871 8.500
8674.979 8.743
8676.087 9.632
8677.195 9.375
8678.303 9.750
8679.411 8.847
8680.518 8.687
8681.626 7.084
8682.734 3.181
8683.842 0.000
8684.950 0.000
8686.058 0.000
8687.166 0.000
8688.274 0.000
8689.382 0.000
8690.489 0.000
8691.597 0.000
8692.705 0.000
8693.813 0.000
8694.921 0.000
8696.029 0.000
8697.137 0.000
8698.245 0.000
8699.353 0.000
8700.461 0.000
8701.568 0.000
8702.676 0.000
8703.784 0.000
8704.892 0.000
8706.000 0.000
